[Header]
Application Name,LabSolutions
Version,5.97 SP1
Data File Name,C:\Users\cremerlab\Desktop\griffin\2021-03-26_calibration\2021-03-26_calibration_3262021_003_003.lcd
Output Date,3/26/2021
Output Time,7:45:16 PM

[File Information]
Type,Data File
Generated,3/26/2021 7:04:56 PM
Generated by,System Administrator
Modified,3/26/2021 7:45:16 PM
Modified by,System Administrator

[Sample Information]
Operator Name,System Administrator
Acquired,3/26/2021 7:05:15 PM
Sample Type,1:Standard
Level,3
Sample Name,2021-03-26_calibration_20mM
Sample ID,003
ISTD Amount1,1
ISTD Amount2,1
ISTD Amount3,1
ISTD Amount4,1
ISTD Amount5,1
ISTD Amount6,1
ISTD Amount7,1
ISTD Amount8,1
ISTD Amount9,1
ISTD Amount10,1
ISTD Amount11,1
ISTD Amount12,1
ISTD Amount13,1
ISTD Amount14,1
ISTD Amount15,1
ISTD Amount16,1
ISTD Amount17,1
ISTD Amount18,1
ISTD Amount19,1
ISTD Amount20,1
ISTD Amount21,1
ISTD Amount22,1
ISTD Amount23,1
ISTD Amount24,1
ISTD Amount25,1
ISTD Amount26,1
ISTD Amount27,1
ISTD Amount28,1
ISTD Amount29,1
ISTD Amount30,1
ISTD Amount31,1
ISTD Amount32,1
Sample Amount,1
Dilution Factor,1
Vial#,3
Injection Volume,20

[Original Files]
Data File,C:\Users\cremerlab\Desktop\griffin\2021-03-26_calibration\2021-03-26_calibration_3262021_003_003.lcd
Method File,C:\LabSolutions\Data\Project1\organicacidsetc2.lcm
Batch File,C:\Users\cremerlab\Desktop\griffin\2021-03-26_calibration\2021-03-26_calibration.lcb
Report Format File,c:\LabSolutions\System\DEFAULT.lsr

[File Description]


[Configuration]
Instrument Name,HPLC-PC-Instrument1
Instrument #,1
Line #,1
# of Detectors,2
Detector ID,Detector A,Detector B
Detector Name,Detector A,Detector B
# of Channels,1,1

[LC Chromatogram(Detector B-Ch1)]
Interval(msec),500
# of Points,4801
Start Time(min),0.000
End Time(min),40.000
Intensity Units,mV
Intensity Multiplier,0.001
R.Time (min),Intensity
0.00000,0
0.00833,0
0.01667,0
0.02500,0
0.03333,0
0.04167,-0
0.05000,-0
0.05833,-1
0.06667,-1
0.07500,-1
0.08333,-1
0.09167,-1
0.10000,-1
0.10833,-1
0.11667,-1
0.12500,-1
0.13333,-0
0.14167,-0
0.15000,-0
0.15833,-0
0.16667,-1
0.17500,-1
0.18333,-1
0.19167,-1
0.20000,-0
0.20833,-0
0.21667,-0
0.22500,-0
0.23333,-0
0.24167,-0
0.25000,-0
0.25833,0
0.26667,0
0.27500,0
0.28333,0
0.29167,0
0.30000,0
0.30833,0
0.31667,-0
0.32500,-0
0.33333,-0
0.34167,-0
0.35000,-1
0.35833,-1
0.36667,-1
0.37500,-1
0.38333,-1
0.39167,-1
0.40000,-1
0.40833,-1
0.41667,-1
0.42500,-1
0.43333,-1
0.44167,-1
0.45000,-0
0.45833,-1
0.46667,-1
0.47500,-0
0.48333,-0
0.49167,-0
0.50000,-0
0.50833,-0
0.51667,-1
0.52500,-1
0.53333,-0
0.54167,-0
0.55000,-0
0.55833,-0
0.56667,-0
0.57500,-0
0.58333,-0
0.59167,-0
0.60000,-0
0.60833,-0
0.61667,-0
0.62500,0
0.63333,0
0.64167,0
0.65000,-0
0.65833,-1
0.66667,-1
0.67500,-1
0.68333,-1
0.69167,-1
0.70000,-1
0.70833,-1
0.71667,-1
0.72500,-2
0.73333,-2
0.74167,-2
0.75000,-2
0.75833,-2
0.76667,-2
0.77500,-2
0.78333,-2
0.79167,-2
0.80000,-1
0.80833,-1
0.81667,-1
0.82500,-1
0.83333,-1
0.84167,-1
0.85000,-1
0.85833,-1
0.86667,-1
0.87500,-1
0.88333,-1
0.89167,-1
0.90000,-1
0.90833,-1
0.91667,-1
0.92500,-1
0.93333,-1
0.94167,-1
0.95000,-1
0.95833,-1
0.96667,-1
0.97500,-1
0.98333,-1
0.99167,-1
1.00000,-1
1.00833,-1
1.01667,-1
1.02500,-0
1.03333,-0
1.04167,-0
1.05000,-0
1.05833,-0
1.06667,-0
1.07500,-0
1.08333,-0
1.09167,0
1.10000,-0
1.10833,-0
1.11667,-0
1.12500,-0
1.13333,-0
1.14167,-1
1.15000,-1
1.15833,-1
1.16667,-1
1.17500,-1
1.18333,-1
1.19167,-1
1.20000,-1
1.20833,-1
1.21667,-1
1.22500,-1
1.23333,-1
1.24167,-0
1.25000,-0
1.25833,-0
1.26667,-0
1.27500,-0
1.28333,-0
1.29167,-0
1.30000,-0
1.30833,-0
1.31667,-1
1.32500,-0
1.33333,-0
1.34167,-0
1.35000,-1
1.35833,-1
1.36667,-1
1.37500,-1
1.38333,-1
1.39167,-1
1.40000,-1
1.40833,-1
1.41667,-0
1.42500,-0
1.43333,-0
1.44167,-0
1.45000,-0
1.45833,-0
1.46667,-0
1.47500,-0
1.48333,0
1.49167,0
1.50000,0
1.50833,0
1.51667,0
1.52500,0
1.53333,0
1.54167,0
1.55000,-0
1.55833,-0
1.56667,-0
1.57500,-0
1.58333,-0
1.59167,-0
1.60000,-0
1.60833,-1
1.61667,-1
1.62500,-1
1.63333,-1
1.64167,-2
1.65000,-2
1.65833,-2
1.66667,-2
1.67500,-1
1.68333,-1
1.69167,-1
1.70000,-0
1.70833,-0
1.71667,0
1.72500,0
1.73333,1
1.74167,1
1.75000,1
1.75833,0
1.76667,0
1.77500,-0
1.78333,-0
1.79167,-0
1.80000,-0
1.80833,-0
1.81667,-0
1.82500,-0
1.83333,-0
1.84167,-0
1.85000,-0
1.85833,-0
1.86667,0
1.87500,0
1.88333,0
1.89167,-0
1.90000,0
1.90833,0
1.91667,0
1.92500,0
1.93333,0
1.94167,0
1.95000,0
1.95833,1
1.96667,0
1.97500,1
1.98333,1
1.99167,0
2.00000,0
2.00833,0
2.01667,0
2.02500,0
2.03333,0
2.04167,0
2.05000,1
2.05833,1
2.06667,1
2.07500,2
2.08333,2
2.09167,1
2.10000,1
2.10833,1
2.11667,2
2.12500,2
2.13333,1
2.14167,2
2.15000,2
2.15833,1
2.16667,1
2.17500,1
2.18333,1
2.19167,1
2.20000,1
2.20833,1
2.21667,1
2.22500,1
2.23333,2
2.24167,2
2.25000,2
2.25833,2
2.26667,2
2.27500,2
2.28333,2
2.29167,2
2.30000,2
2.30833,2
2.31667,2
2.32500,3
2.33333,3
2.34167,3
2.35000,2
2.35833,2
2.36667,2
2.37500,2
2.38333,2
2.39167,2
2.40000,2
2.40833,2
2.41667,2
2.42500,2
2.43333,2
2.44167,1
2.45000,1
2.45833,1
2.46667,1
2.47500,1
2.48333,1
2.49167,1
2.50000,1
2.50833,1
2.51667,2
2.52500,2
2.53333,2
2.54167,2
2.55000,1
2.55833,1
2.56667,1
2.57500,1
2.58333,1
2.59167,1
2.60000,1
2.60833,1
2.61667,1
2.62500,2
2.63333,1
2.64167,1
2.65000,1
2.65833,1
2.66667,1
2.67500,1
2.68333,1
2.69167,1
2.70000,1
2.70833,1
2.71667,1
2.72500,1
2.73333,1
2.74167,1
2.75000,1
2.75833,1
2.76667,1
2.77500,1
2.78333,1
2.79167,1
2.80000,1
2.80833,1
2.81667,1
2.82500,1
2.83333,1
2.84167,1
2.85000,1
2.85833,1
2.86667,1
2.87500,1
2.88333,1
2.89167,1
2.90000,1
2.90833,1
2.91667,2
2.92500,2
2.93333,2
2.94167,2
2.95000,2
2.95833,2
2.96667,2
2.97500,1
2.98333,1
2.99167,2
3.00000,2
3.00833,2
3.01667,2
3.02500,2
3.03333,1
3.04167,1
3.05000,1
3.05833,1
3.06667,1
3.07500,1
3.08333,2
3.09167,2
3.10000,2
3.10833,1
3.11667,1
3.12500,1
3.13333,1
3.14167,1
3.15000,1
3.15833,1
3.16667,0
3.17500,0
3.18333,1
3.19167,1
3.20000,1
3.20833,1
3.21667,1
3.22500,1
3.23333,1
3.24167,0
3.25000,0
3.25833,0
3.26667,-0
3.27500,-0
3.28333,-0
3.29167,-0
3.30000,-0
3.30833,-0
3.31667,-0
3.32500,0
3.33333,1
3.34167,1
3.35000,1
3.35833,1
3.36667,0
3.37500,0
3.38333,0
3.39167,1
3.40000,1
3.40833,1
3.41667,1
3.42500,1
3.43333,1
3.44167,1
3.45000,1
3.45833,0
3.46667,0
3.47500,0
3.48333,0
3.49167,0
3.50000,0
3.50833,0
3.51667,1
3.52500,1
3.53333,0
3.54167,1
3.55000,1
3.55833,1
3.56667,1
3.57500,1
3.58333,1
3.59167,1
3.60000,1
3.60833,1
3.61667,1
3.62500,1
3.63333,1
3.64167,1
3.65000,1
3.65833,1
3.66667,1
3.67500,1
3.68333,1
3.69167,1
3.70000,0
3.70833,0
3.71667,0
3.72500,0
3.73333,0
3.74167,0
3.75000,0
3.75833,1
3.76667,1
3.77500,1
3.78333,1
3.79167,1
3.80000,1
3.80833,1
3.81667,0
3.82500,0
3.83333,-0
3.84167,-0
3.85000,-0
3.85833,-0
3.86667,-0
3.87500,-0
3.88333,0
3.89167,0
3.90000,0
3.90833,0
3.91667,1
3.92500,1
3.93333,1
3.94167,1
3.95000,1
3.95833,1
3.96667,0
3.97500,0
3.98333,0
3.99167,0
4.00000,-0
4.00833,-1
4.01667,-1
4.02500,-0
4.03333,-0
4.04167,0
4.05000,0
4.05833,1
4.06667,1
4.07500,1
4.08333,1
4.09167,2
4.10000,2
4.10833,1
4.11667,1
4.12500,1
4.13333,1
4.14167,1
4.15000,1
4.15833,1
4.16667,1
4.17500,1
4.18333,1
4.19167,1
4.20000,1
4.20833,1
4.21667,1
4.22500,2
4.23333,2
4.24167,2
4.25000,2
4.25833,2
4.26667,2
4.27500,2
4.28333,2
4.29167,1
4.30000,1
4.30833,1
4.31667,1
4.32500,1
4.33333,1
4.34167,2
4.35000,2
4.35833,2
4.36667,2
4.37500,2
4.38333,2
4.39167,2
4.40000,2
4.40833,1
4.41667,1
4.42500,1
4.43333,1
4.44167,1
4.45000,1
4.45833,1
4.46667,1
4.47500,1
4.48333,2
4.49167,2
4.50000,2
4.50833,2
4.51667,2
4.52500,2
4.53333,2
4.54167,1
4.55000,1
4.55833,1
4.56667,2
4.57500,2
4.58333,2
4.59167,2
4.60000,2
4.60833,2
4.61667,1
4.62500,1
4.63333,1
4.64167,0
4.65000,1
4.65833,1
4.66667,1
4.67500,1
4.68333,2
4.69167,2
4.70000,2
4.70833,2
4.71667,2
4.72500,2
4.73333,2
4.74167,2
4.75000,2
4.75833,2
4.76667,2
4.77500,1
4.78333,1
4.79167,1
4.80000,1
4.80833,1
4.81667,1
4.82500,1
4.83333,1
4.84167,1
4.85000,1
4.85833,1
4.86667,1
4.87500,1
4.88333,1
4.89167,1
4.90000,2
4.90833,2
4.91667,1
4.92500,1
4.93333,1
4.94167,0
4.95000,-0
4.95833,-0
4.96667,-0
4.97500,-0
4.98333,-0
4.99167,-0
5.00000,-1
5.00833,-1
5.01667,-1
5.02500,-0
5.03333,-0
5.04167,-0
5.05000,-0
5.05833,-0
5.06667,0
5.07500,0
5.08333,0
5.09167,0
5.10000,0
5.10833,1
5.11667,1
5.12500,1
5.13333,1
5.14167,1
5.15000,1
5.15833,0
5.16667,0
5.17500,0
5.18333,0
5.19167,1
5.20000,1
5.20833,1
5.21667,1
5.22500,1
5.23333,1
5.24167,1
5.25000,1
5.25833,1
5.26667,1
5.27500,1
5.28333,1
5.29167,1
5.30000,1
5.30833,1
5.31667,1
5.32500,1
5.33333,1
5.34167,1
5.35000,1
5.35833,1
5.36667,1
5.37500,1
5.38333,1
5.39167,1
5.40000,1
5.40833,1
5.41667,1
5.42500,1
5.43333,1
5.44167,0
5.45000,0
5.45833,1
5.46667,1
5.47500,0
5.48333,-0
5.49167,-0
5.50000,-0
5.50833,-1
5.51667,-1
5.52500,-0
5.53333,-0
5.54167,-0
5.55000,0
5.55833,0
5.56667,1
5.57500,1
5.58333,0
5.59167,0
5.60000,-0
5.60833,-0
5.61667,-0
5.62500,-0
5.63333,-0
5.64167,0
5.65000,0
5.65833,1
5.66667,1
5.67500,0
5.68333,0
5.69167,0
5.70000,0
5.70833,0
5.71667,1
5.72500,1
5.73333,1
5.74167,1
5.75000,1
5.75833,1
5.76667,1
5.77500,1
5.78333,1
5.79167,1
5.80000,1
5.80833,1
5.81667,1
5.82500,1
5.83333,1
5.84167,0
5.85000,0
5.85833,0
5.86667,0
5.87500,0
5.88333,0
5.89167,0
5.90000,0
5.90833,0
5.91667,0
5.92500,-0
5.93333,-0
5.94167,-0
5.95000,-0
5.95833,-0
5.96667,-0
5.97500,-0
5.98333,-0
5.99167,0
6.00000,0
6.00833,0
6.01667,1
6.02500,1
6.03333,2
6.04167,2
6.05000,1
6.05833,1
6.06667,1
6.07500,1
6.08333,1
6.09167,1
6.10000,1
6.10833,1
6.11667,1
6.12500,2
6.13333,2
6.14167,2
6.15000,2
6.15833,2
6.16667,1
6.17500,1
6.18333,1
6.19167,1
6.20000,1
6.20833,1
6.21667,2
6.22500,2
6.23333,2
6.24167,2
6.25000,2
6.25833,1
6.26667,1
6.27500,1
6.28333,1
6.29167,1
6.30000,1
6.30833,1
6.31667,1
6.32500,1
6.33333,1
6.34167,1
6.35000,1
6.35833,1
6.36667,1
6.37500,1
6.38333,1
6.39167,1
6.40000,1
6.40833,1
6.41667,1
6.42500,1
6.43333,1
6.44167,1
6.45000,1
6.45833,1
6.46667,1
6.47500,1
6.48333,1
6.49167,1
6.50000,1
6.50833,1
6.51667,1
6.52500,1
6.53333,1
6.54167,1
6.55000,1
6.55833,1
6.56667,0
6.57500,0
6.58333,0
6.59167,0
6.60000,1
6.60833,1
6.61667,1
6.62500,1
6.63333,1
6.64167,1
6.65000,1
6.65833,1
6.66667,1
6.67500,1
6.68333,1
6.69167,0
6.70000,0
6.70833,1
6.71667,0
6.72500,0
6.73333,1
6.74167,1
6.75000,1
6.75833,1
6.76667,1
6.77500,2
6.78333,2
6.79167,2
6.80000,2
6.80833,2
6.81667,2
6.82500,2
6.83333,2
6.84167,3
6.85000,3
6.85833,3
6.86667,3
6.87500,3
6.88333,2
6.89167,2
6.90000,2
6.90833,2
6.91667,2
6.92500,2
6.93333,1
6.94167,1
6.95000,1
6.95833,1
6.96667,2
6.97500,2
6.98333,3
6.99167,3
7.00000,3
7.00833,3
7.01667,3
7.02500,3
7.03333,2
7.04167,2
7.05000,2
7.05833,1
7.06667,1
7.07500,1
7.08333,1
7.09167,1
7.10000,1
7.10833,1
7.11667,1
7.12500,1
7.13333,2
7.14167,2
7.15000,2
7.15833,2
7.16667,2
7.17500,2
7.18333,1
7.19167,1
7.20000,1
7.20833,1
7.21667,1
7.22500,1
7.23333,1
7.24167,1
7.25000,1
7.25833,1
7.26667,1
7.27500,1
7.28333,1
7.29167,1
7.30000,1
7.30833,1
7.31667,2
7.32500,2
7.33333,2
7.34167,2
7.35000,2
7.35833,2
7.36667,1
7.37500,1
7.38333,1
7.39167,1
7.40000,1
7.40833,1
7.41667,1
7.42500,1
7.43333,1
7.44167,1
7.45000,1
7.45833,1
7.46667,2
7.47500,2
7.48333,2
7.49167,1
7.50000,1
7.50833,1
7.51667,1
7.52500,1
7.53333,1
7.54167,1
7.55000,1
7.55833,0
7.56667,0
7.57500,0
7.58333,0
7.59167,0
7.60000,1
7.60833,1
7.61667,1
7.62500,1
7.63333,1
7.64167,1
7.65000,1
7.65833,1
7.66667,1
7.67500,1
7.68333,1
7.69167,1
7.70000,1
7.70833,1
7.71667,1
7.72500,1
7.73333,1
7.74167,0
7.75000,0
7.75833,0
7.76667,0
7.77500,0
7.78333,0
7.79167,0
7.80000,1
7.80833,1
7.81667,1
7.82500,1
7.83333,1
7.84167,1
7.85000,1
7.85833,0
7.86667,0
7.87500,0
7.88333,0
7.89167,0
7.90000,0
7.90833,0
7.91667,0
7.92500,0
7.93333,0
7.94167,1
7.95000,1
7.95833,1
7.96667,1
7.97500,1
7.98333,1
7.99167,1
8.00000,1
8.00833,1
8.01667,0
8.02500,1
8.03333,1
8.04167,1
8.05000,1
8.05833,1
8.06667,1
8.07500,0
8.08333,0
8.09167,0
8.10000,0
8.10833,0
8.11667,0
8.12500,0
8.13333,0
8.14167,1
8.15000,1
8.15833,1
8.16667,1
8.17500,0
8.18333,0
8.19167,0
8.20000,0
8.20833,0
8.21667,0
8.22500,0
8.23333,0
8.24167,1
8.25000,1
8.25833,1
8.26667,1
8.27500,1
8.28333,1
8.29167,1
8.30000,1
8.30833,1
8.31667,1
8.32500,1
8.33333,1
8.34167,1
8.35000,1
8.35833,1
8.36667,1
8.37500,1
8.38333,1
8.39167,1
8.40000,1
8.40833,1
8.41667,1
8.42500,1
8.43333,1
8.44167,1
8.45000,1
8.45833,1
8.46667,1
8.47500,1
8.48333,1
8.49167,1
8.50000,1
8.50833,1
8.51667,1
8.52500,1
8.53333,1
8.54167,1
8.55000,1
8.55833,2
8.56667,2
8.57500,2
8.58333,2
8.59167,2
8.60000,2
8.60833,2
8.61667,2
8.62500,1
8.63333,1
8.64167,1
8.65000,1
8.65833,2
8.66667,2
8.67500,2
8.68333,2
8.69167,2
8.70000,2
8.70833,2
8.71667,2
8.72500,2
8.73333,2
8.74167,2
8.75000,2
8.75833,2
8.76667,2
8.77500,2
8.78333,2
8.79167,1
8.80000,1
8.80833,1
8.81667,1
8.82500,1
8.83333,1
8.84167,1
8.85000,1
8.85833,1
8.86667,1
8.87500,1
8.88333,1
8.89167,1
8.90000,1
8.90833,2
8.91667,2
8.92500,2
8.93333,2
8.94167,2
8.95000,2
8.95833,2
8.96667,2
8.97500,2
8.98333,2
8.99167,1
9.00000,1
9.00833,1
9.01667,1
9.02500,1
9.03333,1
9.04167,1
9.05000,2
9.05833,2
9.06667,2
9.07500,2
9.08333,2
9.09167,2
9.10000,2
9.10833,2
9.11667,2
9.12500,2
9.13333,2
9.14167,1
9.15000,1
9.15833,1
9.16667,1
9.17500,1
9.18333,1
9.19167,1
9.20000,1
9.20833,2
9.21667,2
9.22500,1
9.23333,1
9.24167,1
9.25000,1
9.25833,1
9.26667,1
9.27500,2
9.28333,2
9.29167,2
9.30000,2
9.30833,2
9.31667,1
9.32500,1
9.33333,1
9.34167,1
9.35000,1
9.35833,1
9.36667,1
9.37500,1
9.38333,1
9.39167,1
9.40000,1
9.40833,1
9.41667,1
9.42500,1
9.43333,1
9.44167,0
9.45000,0
9.45833,-0
9.46667,-0
9.47500,0
9.48333,0
9.49167,1
9.50000,1
9.50833,1
9.51667,1
9.52500,1
9.53333,1
9.54167,1
9.55000,1
9.55833,1
9.56667,1
9.57500,1
9.58333,1
9.59167,1
9.60000,1
9.60833,1
9.61667,1
9.62500,1
9.63333,1
9.64167,1
9.65000,1
9.65833,1
9.66667,1
9.67500,1
9.68333,1
9.69167,1
9.70000,1
9.70833,1
9.71667,1
9.72500,1
9.73333,1
9.74167,1
9.75000,1
9.75833,1
9.76667,0
9.77500,0
9.78333,0
9.79167,0
9.80000,1
9.80833,1
9.81667,1
9.82500,1
9.83333,1
9.84167,1
9.85000,0
9.85833,0
9.86667,0
9.87500,0
9.88333,0
9.89167,0
9.90000,0
9.90833,-0
9.91667,-0
9.92500,-0
9.93333,-0
9.94167,0
9.95000,0
9.95833,0
9.96667,0
9.97500,1
9.98333,1
9.99167,0
10.00000,0
10.00833,0
10.01667,-0
10.02500,-0
10.03333,-0
10.04167,-1
10.05000,-1
10.05833,-1
10.06667,-1
10.07500,-1
10.08333,-1
10.09167,-1
10.10000,-1
10.10833,-0
10.11667,-0
10.12500,-0
10.13333,-0
10.14167,-0
10.15000,-0
10.15833,-0
10.16667,-0
10.17500,-0
10.18333,-0
10.19167,-1
10.20000,-0
10.20833,-0
10.21667,-0
10.22500,-1
10.23333,-1
10.24167,-1
10.25000,-1
10.25833,-1
10.26667,-0
10.27500,-0
10.28333,-0
10.29167,-0
10.30000,-0
10.30833,-0
10.31667,-0
10.32500,0
10.33333,0
10.34167,1
10.35000,1
10.35833,1
10.36667,0
10.37500,0
10.38333,0
10.39167,0
10.40000,0
10.40833,0
10.41667,-0
10.42500,-1
10.43333,-1
10.44167,-1
10.45000,-1
10.45833,-1
10.46667,-1
10.47500,-2
10.48333,-2
10.49167,-2
10.50000,-3
10.50833,-4
10.51667,-5
10.52500,-5
10.53333,-6
10.54167,-7
10.55000,-8
10.55833,-10
10.56667,-12
10.57500,-14
10.58333,-18
10.59167,-23
10.60000,-30
10.60833,-40
10.61667,-53
10.62500,-70
10.63333,-93
10.64167,-125
10.65000,-167
10.65833,-222
10.66667,-294
10.67500,-387
10.68333,-506
10.69167,-656
10.70000,-843
10.70833,-1075
10.71667,-1359
10.72500,-1701
10.73333,-2109
10.74167,-2589
10.75000,-3147
10.75833,-3788
10.76667,-4515
10.77500,-5328
10.78333,-6226
10.79167,-7203
10.80000,-8252
10.80833,-9364
10.81667,-10525
10.82500,-11720
10.83333,-12931
10.84167,-14141
10.85000,-15328
10.85833,-16473
10.86667,-17559
10.87500,-18566
10.88333,-19478
10.89167,-20282
10.90000,-20965
10.90833,-21520
10.91667,-21940
10.92500,-22223
10.93333,-22367
10.94167,-22375
10.95000,-22252
10.95833,-22005
10.96667,-21643
10.97500,-21175
10.98333,-20611
10.99167,-19964
11.00000,-19245
11.00833,-18467
11.01667,-17641
11.02500,-16778
11.03333,-15892
11.04167,-14990
11.05000,-14084
11.05833,-13183
11.06667,-12293
11.07500,-11423
11.08333,-10578
11.09167,-9763
11.10000,-8982
11.10833,-8238
11.11667,-7534
11.12500,-6871
11.13333,-6251
11.14167,-5672
11.15000,-5136
11.15833,-4641
11.16667,-4186
11.17500,-3770
11.18333,-3390
11.19167,-3046
11.20000,-2734
11.20833,-2452
11.21667,-2199
11.22500,-1972
11.23333,-1770
11.24167,-1589
11.25000,-1428
11.25833,-1285
11.26667,-1158
11.27500,-1045
11.28333,-945
11.29167,-857
11.30000,-779
11.30833,-711
11.31667,-650
11.32500,-596
11.33333,-548
11.34167,-506
11.35000,-469
11.35833,-435
11.36667,-406
11.37500,-379
11.38333,-355
11.39167,-334
11.40000,-315
11.40833,-297
11.41667,-281
11.42500,-267
11.43333,-254
11.44167,-242
11.45000,-231
11.45833,-221
11.46667,-212
11.47500,-203
11.48333,-195
11.49167,-187
11.50000,-181
11.50833,-174
11.51667,-167
11.52500,-161
11.53333,-156
11.54167,-151
11.55000,-146
11.55833,-141
11.56667,-137
11.57500,-133
11.58333,-129
11.59167,-126
11.60000,-122
11.60833,-118
11.61667,-115
11.62500,-112
11.63333,-109
11.64167,-107
11.65000,-104
11.65833,-101
11.66667,-99
11.67500,-96
11.68333,-94
11.69167,-92
11.70000,-90
11.70833,-87
11.71667,-85
11.72500,-83
11.73333,-82
11.74167,-80
11.75000,-79
11.75833,-77
11.76667,-76
11.77500,-74
11.78333,-72
11.79167,-71
11.80000,-69
11.80833,-67
11.81667,-66
11.82500,-64
11.83333,-63
11.84167,-62
11.85000,-60
11.85833,-59
11.86667,-58
11.87500,-57
11.88333,-56
11.89167,-55
11.90000,-54
11.90833,-52
11.91667,-51
11.92500,-50
11.93333,-50
11.94167,-49
11.95000,-49
11.95833,-48
11.96667,-48
11.97500,-47
11.98333,-47
11.99167,-46
12.00000,-46
12.00833,-45
12.01667,-45
12.02500,-45
12.03333,-44
12.04167,-44
12.05000,-44
12.05833,-44
12.06667,-44
12.07500,-43
12.08333,-42
12.09167,-42
12.10000,-42
12.10833,-42
12.11667,-42
12.12500,-42
12.13333,-42
12.14167,-43
12.15000,-43
12.15833,-43
12.16667,-43
12.17500,-43
12.18333,-43
12.19167,-42
12.20000,-42
12.20833,-42
12.21667,-42
12.22500,-42
12.23333,-43
12.24167,-43
12.25000,-42
12.25833,-42
12.26667,-42
12.27500,-43
12.28333,-43
12.29167,-43
12.30000,-42
12.30833,-41
12.31667,-41
12.32500,-41
12.33333,-41
12.34167,-41
12.35000,-40
12.35833,-40
12.36667,-40
12.37500,-40
12.38333,-40
12.39167,-39
12.40000,-39
12.40833,-39
12.41667,-39
12.42500,-39
12.43333,-39
12.44167,-39
12.45000,-38
12.45833,-39
12.46667,-39
12.47500,-39
12.48333,-38
12.49167,-37
12.50000,-37
12.50833,-36
12.51667,-35
12.52500,-35
12.53333,-34
12.54167,-34
12.55000,-34
12.55833,-34
12.56667,-34
12.57500,-34
12.58333,-34
12.59167,-34
12.60000,-33
12.60833,-33
12.61667,-33
12.62500,-32
12.63333,-32
12.64167,-32
12.65000,-32
12.65833,-31
12.66667,-31
12.67500,-31
12.68333,-30
12.69167,-30
12.70000,-29
12.70833,-29
12.71667,-28
12.72500,-27
12.73333,-27
12.74167,-26
12.75000,-25
12.75833,-25
12.76667,-24
12.77500,-23
12.78333,-22
12.79167,-21
12.80000,-20
12.80833,-19
12.81667,-18
12.82500,-17
12.83333,-16
12.84167,-16
12.85000,-15
12.85833,-13
12.86667,-12
12.87500,-10
12.88333,-9
12.89167,-8
12.90000,-7
12.90833,-6
12.91667,-4
12.92500,-3
12.93333,-2
12.94167,-0
12.95000,1
12.95833,2
12.96667,3
12.97500,5
12.98333,6
12.99167,8
13.00000,9
13.00833,10
13.01667,11
13.02500,12
13.03333,13
13.04167,14
13.05000,15
13.05833,16
13.06667,17
13.07500,18
13.08333,18
13.09167,19
13.10000,20
13.10833,21
13.11667,21
13.12500,21
13.13333,22
13.14167,23
13.15000,23
13.15833,24
13.16667,25
13.17500,25
13.18333,26
13.19167,26
13.20000,27
13.20833,27
13.21667,27
13.22500,27
13.23333,27
13.24167,27
13.25000,27
13.25833,26
13.26667,26
13.27500,26
13.28333,26
13.29167,26
13.30000,25
13.30833,24
13.31667,23
13.32500,23
13.33333,22
13.34167,21
13.35000,20
13.35833,19
13.36667,18
13.37500,17
13.38333,15
13.39167,14
13.40000,12
13.40833,11
13.41667,10
13.42500,9
13.43333,8
13.44167,8
13.45000,7
13.45833,6
13.46667,4
13.47500,2
13.48333,1
13.49167,-0
13.50000,-1
13.50833,-1
13.51667,-2
13.52500,-3
13.53333,-4
13.54167,-4
13.55000,-5
13.55833,-5
13.56667,-6
13.57500,-7
13.58333,-7
13.59167,-8
13.60000,-8
13.60833,-9
13.61667,-9
13.62500,-10
13.63333,-10
13.64167,-11
13.65000,-11
13.65833,-12
13.66667,-11
13.67500,-11
13.68333,-11
13.69167,-11
13.70000,-11
13.70833,-11
13.71667,-12
13.72500,-12
13.73333,-12
13.74167,-12
13.75000,-13
13.75833,-13
13.76667,-13
13.77500,-13
13.78333,-13
13.79167,-13
13.80000,-13
13.80833,-13
13.81667,-13
13.82500,-13
13.83333,-13
13.84167,-13
13.85000,-13
13.85833,-13
13.86667,-13
13.87500,-14
13.88333,-14
13.89167,-14
13.90000,-14
13.90833,-14
13.91667,-14
13.92500,-14
13.93333,-14
13.94167,-13
13.95000,-13
13.95833,-13
13.96667,-13
13.97500,-13
13.98333,-13
13.99167,-13
14.00000,-13
14.00833,-13
14.01667,-13
14.02500,-13
14.03333,-13
14.04167,-13
14.05000,-13
14.05833,-13
14.06667,-12
14.07500,-12
14.08333,-12
14.09167,-12
14.10000,-12
14.10833,-12
14.11667,-12
14.12500,-11
14.13333,-11
14.14167,-11
14.15000,-12
14.15833,-12
14.16667,-12
14.17500,-11
14.18333,-11
14.19167,-11
14.20000,-11
14.20833,-11
14.21667,-11
14.22500,-11
14.23333,-11
14.24167,-12
14.25000,-12
14.25833,-12
14.26667,-12
14.27500,-12
14.28333,-12
14.29167,-12
14.30000,-12
14.30833,-12
14.31667,-12
14.32500,-12
14.33333,-12
14.34167,-12
14.35000,-12
14.35833,-12
14.36667,-12
14.37500,-11
14.38333,-11
14.39167,-11
14.40000,-11
14.40833,-11
14.41667,-10
14.42500,-10
14.43333,-10
14.44167,-10
14.45000,-10
14.45833,-10
14.46667,-10
14.47500,-10
14.48333,-10
14.49167,-10
14.50000,-10
14.50833,-9
14.51667,-9
14.52500,-9
14.53333,-9
14.54167,-9
14.55000,-9
14.55833,-8
14.56667,-8
14.57500,-9
14.58333,-9
14.59167,-9
14.60000,-9
14.60833,-10
14.61667,-10
14.62500,-9
14.63333,-9
14.64167,-9
14.65000,-9
14.65833,-9
14.66667,-9
14.67500,-9
14.68333,-9
14.69167,-8
14.70000,-8
14.70833,-8
14.71667,-8
14.72500,-8
14.73333,-8
14.74167,-8
14.75000,-8
14.75833,-8
14.76667,-8
14.77500,-8
14.78333,-8
14.79167,-8
14.80000,-7
14.80833,-7
14.81667,-8
14.82500,-7
14.83333,-7
14.84167,-7
14.85000,-7
14.85833,-7
14.86667,-7
14.87500,-6
14.88333,-6
14.89167,-5
14.90000,-5
14.90833,-4
14.91667,-4
14.92500,-3
14.93333,-2
14.94167,-1
14.95000,0
14.95833,2
14.96667,3
14.97500,5
14.98333,7
14.99167,10
15.00000,13
15.00833,17
15.01667,22
15.02500,28
15.03333,34
15.04167,41
15.05000,50
15.05833,61
15.06667,74
15.07500,90
15.08333,109
15.09167,130
15.10000,156
15.10833,186
15.11667,222
15.12500,265
15.13333,316
15.14167,377
15.15000,448
15.15833,533
15.16667,634
15.17500,752
15.18333,891
15.19167,1055
15.20000,1246
15.20833,1468
15.21667,1727
15.22500,2026
15.23333,2371
15.24167,2768
15.25000,3221
15.25833,3738
15.26667,4325
15.27500,4987
15.28333,5731
15.29167,6564
15.30000,7492
15.30833,8522
15.31667,9658
15.32500,10905
15.33333,12267
15.34167,13748
15.35000,15350
15.35833,17075
15.36667,18921
15.37500,20888
15.38333,22971
15.39167,25167
15.40000,27470
15.40833,29870
15.41667,32358
15.42500,34922
15.43333,37551
15.44167,40229
15.45000,42939
15.45833,45667
15.46667,48392
15.47500,51096
15.48333,53761
15.49167,56367
15.50000,58893
15.50833,61321
15.51667,63632
15.52500,65808
15.53333,67831
15.54167,69687
15.55000,71362
15.55833,72842
15.56667,74117
15.57500,75179
15.58333,76021
15.59167,76639
15.60000,77030
15.60833,77194
15.61667,77135
15.62500,76855
15.63333,76360
15.64167,75659
15.65000,74759
15.65833,73672
15.66667,72410
15.67500,70986
15.68333,69413
15.69167,67706
15.70000,65880
15.70833,63949
15.71667,61930
15.72500,59836
15.73333,57683
15.74167,55485
15.75000,53256
15.75833,51009
15.76667,48756
15.77500,46509
15.78333,44279
15.79167,42076
15.80000,39908
15.80833,37783
15.81667,35709
15.82500,33692
15.83333,31736
15.84167,29846
15.85000,28025
15.85833,26277
15.86667,24603
15.87500,23003
15.88333,21480
15.89167,20032
15.90000,18660
15.90833,17362
15.91667,16137
15.92500,14984
15.93333,13900
15.94167,12884
15.95000,11933
15.95833,11044
15.96667,10215
15.97500,9443
15.98333,8725
15.99167,8058
16.00000,7440
16.00833,6868
16.01667,6339
16.02500,5851
16.03333,5400
16.04167,4984
16.05000,4602
16.05833,4250
16.06667,3927
16.07500,3630
16.08333,3358
16.09167,3108
16.10000,2880
16.10833,2670
16.11667,2478
16.12500,2302
16.13333,2140
16.14167,1993
16.15000,1858
16.15833,1735
16.16667,1622
16.17500,1519
16.18333,1424
16.19167,1337
16.20000,1258
16.20833,1186
16.21667,1119
16.22500,1058
16.23333,1001
16.24167,950
16.25000,902
16.25833,859
16.26667,819
16.27500,782
16.28333,748
16.29167,716
16.30000,687
16.30833,660
16.31667,635
16.32500,612
16.33333,590
16.34167,570
16.35000,552
16.35833,535
16.36667,518
16.37500,503
16.38333,489
16.39167,476
16.40000,463
16.40833,452
16.41667,441
16.42500,431
16.43333,421
16.44167,412
16.45000,403
16.45833,395
16.46667,388
16.47500,380
16.48333,373
16.49167,366
16.50000,359
16.50833,353
16.51667,347
16.52500,342
16.53333,337
16.54167,332
16.55000,328
16.55833,324
16.56667,320
16.57500,316
16.58333,312
16.59167,308
16.60000,304
16.60833,300
16.61667,297
16.62500,293
16.63333,290
16.64167,286
16.65000,284
16.65833,281
16.66667,278
16.67500,276
16.68333,273
16.69167,270
16.70000,267
16.70833,264
16.71667,261
16.72500,259
16.73333,257
16.74167,255
16.75000,252
16.75833,250
16.76667,247
16.77500,244
16.78333,242
16.79167,240
16.80000,238
16.80833,236
16.81667,234
16.82500,232
16.83333,230
16.84167,228
16.85000,226
16.85833,223
16.86667,221
16.87500,219
16.88333,217
16.89167,214
16.90000,212
16.90833,210
16.91667,208
16.92500,206
16.93333,205
16.94167,203
16.95000,201
16.95833,199
16.96667,197
16.97500,195
16.98333,192
16.99167,190
17.00000,188
17.00833,186
17.01667,185
17.02500,183
17.03333,182
17.04167,180
17.05000,178
17.05833,177
17.06667,175
17.07500,174
17.08333,172
17.09167,171
17.10000,169
17.10833,167
17.11667,166
17.12500,164
17.13333,163
17.14167,162
17.15000,160
17.15833,159
17.16667,157
17.17500,156
17.18333,154
17.19167,153
17.20000,152
17.20833,150
17.21667,149
17.22500,148
17.23333,147
17.24167,146
17.25000,145
17.25833,144
17.26667,143
17.27500,142
17.28333,141
17.29167,140
17.30000,138
17.30833,137
17.31667,136
17.32500,135
17.33333,135
17.34167,134
17.35000,133
17.35833,132
17.36667,131
17.37500,130
17.38333,129
17.39167,129
17.40000,128
17.40833,127
17.41667,126
17.42500,125
17.43333,125
17.44167,124
17.45000,123
17.45833,123
17.46667,122
17.47500,121
17.48333,120
17.49167,119
17.50000,119
17.50833,118
17.51667,117
17.52500,117
17.53333,116
17.54167,116
17.55000,115
17.55833,115
17.56667,115
17.57500,114
17.58333,113
17.59167,113
17.60000,112
17.60833,111
17.61667,110
17.62500,109
17.63333,109
17.64167,109
17.65000,108
17.65833,108
17.66667,107
17.67500,107
17.68333,106
17.69167,106
17.70000,105
17.70833,105
17.71667,105
17.72500,104
17.73333,103
17.74167,103
17.75000,102
17.75833,102
17.76667,101
17.77500,101
17.78333,100
17.79167,100
17.80000,99
17.80833,99
17.81667,99
17.82500,98
17.83333,98
17.84167,98
17.85000,97
17.85833,97
17.86667,96
17.87500,96
17.88333,95
17.89167,94
17.90000,94
17.90833,93
17.91667,92
17.92500,92
17.93333,91
17.94167,91
17.95000,91
17.95833,91
17.96667,91
17.97500,90
17.98333,90
17.99167,90
18.00000,89
18.00833,89
18.01667,88
18.02500,88
18.03333,88
18.04167,87
18.05000,87
18.05833,87
18.06667,86
18.07500,85
18.08333,85
18.09167,84
18.10000,84
18.10833,83
18.11667,83
18.12500,82
18.13333,82
18.14167,81
18.15000,81
18.15833,80
18.16667,79
18.17500,79
18.18333,78
18.19167,78
18.20000,77
18.20833,77
18.21667,76
18.22500,76
18.23333,76
18.24167,76
18.25000,75
18.25833,75
18.26667,75
18.27500,75
18.28333,75
18.29167,75
18.30000,74
18.30833,74
18.31667,74
18.32500,73
18.33333,72
18.34167,72
18.35000,71
18.35833,71
18.36667,71
18.37500,70
18.38333,70
18.39167,69
18.40000,69
18.40833,68
18.41667,68
18.42500,68
18.43333,67
18.44167,67
18.45000,66
18.45833,66
18.46667,66
18.47500,65
18.48333,66
18.49167,66
18.50000,65
18.50833,65
18.51667,64
18.52500,64
18.53333,64
18.54167,64
18.55000,64
18.55833,63
18.56667,63
18.57500,63
18.58333,62
18.59167,62
18.60000,62
18.60833,62
18.61667,62
18.62500,62
18.63333,61
18.64167,61
18.65000,61
18.65833,61
18.66667,61
18.67500,61
18.68333,60
18.69167,60
18.70000,60
18.70833,60
18.71667,60
18.72500,60
18.73333,60
18.74167,60
18.75000,60
18.75833,60
18.76667,60
18.77500,60
18.78333,60
18.79167,60
18.80000,59
18.80833,59
18.81667,60
18.82500,60
18.83333,60
18.84167,60
18.85000,60
18.85833,60
18.86667,60
18.87500,61
18.88333,61
18.89167,60
18.90000,60
18.90833,60
18.91667,60
18.92500,60
18.93333,60
18.94167,60
18.95000,60
18.95833,59
18.96667,59
18.97500,59
18.98333,58
18.99167,58
19.00000,58
19.00833,58
19.01667,58
19.02500,57
19.03333,57
19.04167,56
19.05000,56
19.05833,55
19.06667,54
19.07500,54
19.08333,54
19.09167,53
19.10000,53
19.10833,52
19.11667,51
19.12500,51
19.13333,50
19.14167,50
19.15000,49
19.15833,49
19.16667,48
19.17500,48
19.18333,48
19.19167,48
19.20000,47
19.20833,46
19.21667,46
19.22500,45
19.23333,45
19.24167,44
19.25000,44
19.25833,43
19.26667,43
19.27500,42
19.28333,42
19.29167,42
19.30000,42
19.30833,41
19.31667,41
19.32500,41
19.33333,41
19.34167,41
19.35000,41
19.35833,40
19.36667,40
19.37500,40
19.38333,40
19.39167,39
19.40000,39
19.40833,38
19.41667,38
19.42500,38
19.43333,37
19.44167,37
19.45000,37
19.45833,37
19.46667,37
19.47500,37
19.48333,37
19.49167,37
19.50000,37
19.50833,37
19.51667,37
19.52500,36
19.53333,36
19.54167,36
19.55000,35
19.55833,35
19.56667,35
19.57500,34
19.58333,34
19.59167,34
19.60000,33
19.60833,33
19.61667,34
19.62500,34
19.63333,34
19.64167,34
19.65000,33
19.65833,33
19.66667,32
19.67500,32
19.68333,32
19.69167,31
19.70000,31
19.70833,31
19.71667,31
19.72500,31
19.73333,31
19.74167,31
19.75000,31
19.75833,31
19.76667,30
19.77500,30
19.78333,30
19.79167,30
19.80000,30
19.80833,30
19.81667,29
19.82500,29
19.83333,29
19.84167,29
19.85000,29
19.85833,29
19.86667,29
19.87500,29
19.88333,28
19.89167,28
19.90000,28
19.90833,28
19.91667,28
19.92500,28
19.93333,28
19.94167,27
19.95000,27
19.95833,27
19.96667,26
19.97500,27
19.98333,27
19.99167,26
20.00000,26
20.00833,26
20.01667,26
20.02500,26
20.03333,26
20.04167,26
20.05000,25
20.05833,25
20.06667,25
20.07500,25
20.08333,25
20.09167,25
20.10000,25
20.10833,25
20.11667,25
20.12500,25
20.13333,25
20.14167,25
20.15000,24
20.15833,24
20.16667,24
20.17500,24
20.18333,25
20.19167,25
20.20000,25
20.20833,24
20.21667,24
20.22500,24
20.23333,24
20.24167,23
20.25000,23
20.25833,23
20.26667,23
20.27500,22
20.28333,22
20.29167,23
20.30000,23
20.30833,23
20.31667,23
20.32500,22
20.33333,22
20.34167,22
20.35000,22
20.35833,22
20.36667,22
20.37500,22
20.38333,22
20.39167,22
20.40000,22
20.40833,22
20.41667,22
20.42500,22
20.43333,22
20.44167,22
20.45000,21
20.45833,21
20.46667,20
20.47500,20
20.48333,20
20.49167,19
20.50000,19
20.50833,19
20.51667,19
20.52500,19
20.53333,19
20.54167,19
20.55000,20
20.55833,20
20.56667,20
20.57500,20
20.58333,20
20.59167,20
20.60000,19
20.60833,19
20.61667,19
20.62500,19
20.63333,19
20.64167,19
20.65000,19
20.65833,19
20.66667,19
20.67500,19
20.68333,19
20.69167,19
20.70000,19
20.70833,19
20.71667,19
20.72500,19
20.73333,19
20.74167,19
20.75000,19
20.75833,19
20.76667,19
20.77500,19
20.78333,18
20.79167,18
20.80000,18
20.80833,18
20.81667,18
20.82500,18
20.83333,18
20.84167,18
20.85000,18
20.85833,18
20.86667,18
20.87500,18
20.88333,17
20.89167,17
20.90000,17
20.90833,17
20.91667,17
20.92500,18
20.93333,18
20.94167,18
20.95000,17
20.95833,17
20.96667,17
20.97500,17
20.98333,17
20.99167,17
21.00000,17
21.00833,17
21.01667,17
21.02500,17
21.03333,17
21.04167,17
21.05000,17
21.05833,16
21.06667,16
21.07500,16
21.08333,16
21.09167,16
21.10000,16
21.10833,17
21.11667,17
21.12500,17
21.13333,17
21.14167,17
21.15000,17
21.15833,17
21.16667,17
21.17500,17
21.18333,17
21.19167,17
21.20000,18
21.20833,17
21.21667,17
21.22500,18
21.23333,18
21.24167,18
21.25000,18
21.25833,18
21.26667,19
21.27500,19
21.28333,19
21.29167,19
21.30000,20
21.30833,20
21.31667,21
21.32500,22
21.33333,23
21.34167,24
21.35000,25
21.35833,26
21.36667,28
21.37500,30
21.38333,32
21.39167,34
21.40000,37
21.40833,40
21.41667,44
21.42500,48
21.43333,52
21.44167,57
21.45000,63
21.45833,69
21.46667,76
21.47500,84
21.48333,93
21.49167,103
21.50000,115
21.50833,128
21.51667,142
21.52500,159
21.53333,177
21.54167,198
21.55000,222
21.55833,248
21.56667,278
21.57500,312
21.58333,349
21.59167,392
21.60000,440
21.60833,494
21.61667,554
21.62500,621
21.63333,696
21.64167,779
21.65000,872
21.65833,975
21.66667,1089
21.67500,1216
21.68333,1355
21.69167,1508
21.70000,1676
21.70833,1861
21.71667,2062
21.72500,2281
21.73333,2520
21.74167,2777
21.75000,3056
21.75833,3356
21.76667,3677
21.77500,4022
21.78333,4389
21.79167,4780
21.80000,5193
21.80833,5629
21.81667,6088
21.82500,6568
21.83333,7070
21.84167,7592
21.85000,8133
21.85833,8691
21.86667,9265
21.87500,9852
21.88333,10450
21.89167,11058
21.90000,11671
21.90833,12287
21.91667,12903
21.92500,13517
21.93333,14124
21.94167,14722
21.95000,15307
21.95833,15875
21.96667,16423
21.97500,16949
21.98333,17448
21.99167,17917
22.00000,18353
22.00833,18755
22.01667,19118
22.02500,19442
22.03333,19724
22.04167,19962
22.05000,20155
22.05833,20302
22.06667,20402
22.07500,20456
22.08333,20463
22.09167,20423
22.10000,20337
22.10833,20206
22.11667,20031
22.12500,19814
22.13333,19557
22.14167,19262
22.15000,18931
22.15833,18566
22.16667,18170
22.17500,17747
22.18333,17297
22.19167,16826
22.20000,16335
22.20833,15827
22.21667,15306
22.22500,14773
22.23333,14233
22.24167,13687
22.25000,13139
22.25833,12590
22.26667,12043
22.27500,11500
22.28333,10962
22.29167,10433
22.30000,9913
22.30833,9405
22.31667,8909
22.32500,8426
22.33333,7958
22.34167,7505
22.35000,7069
22.35833,6649
22.36667,6246
22.37500,5860
22.38333,5491
22.39167,5139
22.40000,4805
22.40833,4488
22.41667,4188
22.42500,3903
22.43333,3636
22.44167,3384
22.45000,3147
22.45833,2925
22.46667,2717
22.47500,2522
22.48333,2340
22.49167,2170
22.50000,2012
22.50833,1865
22.51667,1729
22.52500,1602
22.53333,1485
22.54167,1376
22.55000,1276
22.55833,1183
22.56667,1098
22.57500,1019
22.58333,947
22.59167,881
22.60000,819
22.60833,763
22.61667,711
22.62500,663
22.63333,619
22.64167,578
22.65000,541
22.65833,507
22.66667,476
22.67500,448
22.68333,422
22.69167,398
22.70000,376
22.70833,356
22.71667,337
22.72500,320
22.73333,305
22.74167,291
22.75000,277
22.75833,265
22.76667,253
22.77500,243
22.78333,233
22.79167,224
22.80000,216
22.80833,208
22.81667,201
22.82500,195
22.83333,189
22.84167,183
22.85000,178
22.85833,173
22.86667,168
22.87500,163
22.88333,159
22.89167,155
22.90000,152
22.90833,149
22.91667,146
22.92500,143
22.93333,141
22.94167,138
22.95000,136
22.95833,133
22.96667,131
22.97500,129
22.98333,127
22.99167,125
23.00000,123
23.00833,121
23.01667,118
23.02500,117
23.03333,115
23.04167,113
23.05000,112
23.05833,111
23.06667,110
23.07500,109
23.08333,108
23.09167,107
23.10000,105
23.10833,104
23.11667,103
23.12500,102
23.13333,101
23.14167,99
23.15000,98
23.15833,97
23.16667,96
23.17500,95
23.18333,94
23.19167,93
23.20000,93
23.20833,92
23.21667,91
23.22500,90
23.23333,89
23.24167,88
23.25000,87
23.25833,87
23.26667,86
23.27500,85
23.28333,85
23.29167,84
23.30000,83
23.30833,82
23.31667,81
23.32500,80
23.33333,79
23.34167,78
23.35000,78
23.35833,77
23.36667,77
23.37500,76
23.38333,75
23.39167,75
23.40000,74
23.40833,74
23.41667,73
23.42500,73
23.43333,72
23.44167,71
23.45000,71
23.45833,70
23.46667,69
23.47500,69
23.48333,68
23.49167,68
23.50000,67
23.50833,67
23.51667,66
23.52500,66
23.53333,65
23.54167,65
23.55000,64
23.55833,64
23.56667,63
23.57500,63
23.58333,63
23.59167,62
23.60000,61
23.60833,60
23.61667,60
23.62500,60
23.63333,59
23.64167,59
23.65000,59
23.65833,59
23.66667,58
23.67500,58
23.68333,57
23.69167,57
23.70000,57
23.70833,57
23.71667,57
23.72500,56
23.73333,56
23.74167,55
23.75000,55
23.75833,55
23.76667,55
23.77500,55
23.78333,54
23.79167,54
23.80000,53
23.80833,53
23.81667,53
23.82500,53
23.83333,53
23.84167,52
23.85000,52
23.85833,52
23.86667,52
23.87500,51
23.88333,51
23.89167,51
23.90000,51
23.90833,50
23.91667,50
23.92500,50
23.93333,50
23.94167,51
23.95000,51
23.95833,50
23.96667,50
23.97500,50
23.98333,49
23.99167,49
24.00000,49
24.00833,49
24.01667,49
24.02500,49
24.03333,48
24.04167,48
24.05000,48
24.05833,48
24.06667,47
24.07500,47
24.08333,47
24.09167,47
24.10000,47
24.10833,47
24.11667,47
24.12500,46
24.13333,46
24.14167,46
24.15000,46
24.15833,46
24.16667,46
24.17500,46
24.18333,46
24.19167,47
24.20000,47
24.20833,47
24.21667,47
24.22500,47
24.23333,47
24.24167,48
24.25000,48
24.25833,49
24.26667,50
24.27500,51
24.28333,52
24.29167,53
24.30000,54
24.30833,55
24.31667,56
24.32500,58
24.33333,60
24.34167,63
24.35000,66
24.35833,69
24.36667,72
24.37500,76
24.38333,80
24.39167,84
24.40000,89
24.40833,94
24.41667,101
24.42500,108
24.43333,116
24.44167,126
24.45000,136
24.45833,147
24.46667,159
24.47500,173
24.48333,188
24.49167,205
24.50000,224
24.50833,245
24.51667,268
24.52500,293
24.53333,321
24.54167,352
24.55000,386
24.55833,423
24.56667,464
24.57500,509
24.58333,558
24.59167,611
24.60000,668
24.60833,730
24.61667,798
24.62500,871
24.63333,950
24.64167,1035
24.65000,1127
24.65833,1225
24.66667,1329
24.67500,1441
24.68333,1560
24.69167,1686
24.70000,1820
24.70833,1961
24.71667,2109
24.72500,2264
24.73333,2426
24.74167,2595
24.75000,2772
24.75833,2954
24.76667,3143
24.77500,3338
24.78333,3538
24.79167,3742
24.80000,3950
24.80833,4162
24.81667,4376
24.82500,4593
24.83333,4810
24.84167,5028
24.85000,5245
24.85833,5460
24.86667,5673
24.87500,5882
24.88333,6086
24.89167,6284
24.90000,6475
24.90833,6660
24.91667,6835
24.92500,7001
24.93333,7156
24.94167,7299
24.95000,7431
24.95833,7550
24.96667,7656
24.97500,7748
24.98333,7826
24.99167,7889
25.00000,7936
25.00833,7969
25.01667,7986
25.02500,7988
25.03333,7974
25.04167,7946
25.05000,7903
25.05833,7845
25.06667,7774
25.07500,7689
25.08333,7592
25.09167,7481
25.10000,7359
25.10833,7227
25.11667,7084
25.12500,6932
25.13333,6771
25.14167,6603
25.15000,6428
25.15833,6247
25.16667,6061
25.17500,5871
25.18333,5678
25.19167,5482
25.20000,5285
25.20833,5086
25.21667,4888
25.22500,4690
25.23333,4493
25.24167,4298
25.25000,4106
25.25833,3917
25.26667,3731
25.27500,3549
25.28333,3371
25.29167,3198
25.30000,3030
25.30833,2867
25.31667,2709
25.32500,2557
25.33333,2411
25.34167,2270
25.35000,2135
25.35833,2006
25.36667,1882
25.37500,1765
25.38333,1654
25.39167,1548
25.40000,1448
25.40833,1353
25.41667,1264
25.42500,1180
25.43333,1100
25.44167,1026
25.45000,955
25.45833,889
25.46667,828
25.47500,770
25.48333,717
25.49167,667
25.50000,621
25.50833,577
25.51667,537
25.52500,500
25.53333,466
25.54167,434
25.55000,404
25.55833,377
25.56667,352
25.57500,329
25.58333,308
25.59167,288
25.60000,270
25.60833,253
25.61667,238
25.62500,225
25.63333,212
25.64167,200
25.65000,189
25.65833,179
25.66667,170
25.67500,162
25.68333,154
25.69167,147
25.70000,140
25.70833,134
25.71667,129
25.72500,124
25.73333,119
25.74167,114
25.75000,110
25.75833,107
25.76667,103
25.77500,100
25.78333,96
25.79167,93
25.80000,91
25.80833,89
25.81667,87
25.82500,85
25.83333,84
25.84167,82
25.85000,80
25.85833,79
25.86667,78
25.87500,76
25.88333,75
25.89167,73
25.90000,72
25.90833,71
25.91667,70
25.92500,69
25.93333,68
25.94167,67
25.95000,66
25.95833,66
25.96667,65
25.97500,64
25.98333,64
25.99167,63
26.00000,62
26.00833,61
26.01667,60
26.02500,60
26.03333,60
26.04167,60
26.05000,59
26.05833,59
26.06667,58
26.07500,57
26.08333,56
26.09167,56
26.10000,55
26.10833,55
26.11667,54
26.12500,54
26.13333,53
26.14167,53
26.15000,52
26.15833,52
26.16667,52
26.17500,52
26.18333,51
26.19167,51
26.20000,50
26.20833,49
26.21667,48
26.22500,48
26.23333,48
26.24167,47
26.25000,47
26.25833,47
26.26667,47
26.27500,47
26.28333,47
26.29167,46
26.30000,46
26.30833,46
26.31667,45
26.32500,45
26.33333,45
26.34167,45
26.35000,44
26.35833,44
26.36667,44
26.37500,44
26.38333,43
26.39167,43
26.40000,43
26.40833,42
26.41667,42
26.42500,42
26.43333,41
26.44167,41
26.45000,40
26.45833,41
26.46667,41
26.47500,40
26.48333,40
26.49167,40
26.50000,40
26.50833,40
26.51667,40
26.52500,40
26.53333,40
26.54167,40
26.55000,40
26.55833,40
26.56667,39
26.57500,39
26.58333,39
26.59167,40
26.60000,40
26.60833,40
26.61667,39
26.62500,39
26.63333,40
26.64167,39
26.65000,39
26.65833,39
26.66667,39
26.67500,39
26.68333,38
26.69167,39
26.70000,39
26.70833,39
26.71667,39
26.72500,38
26.73333,38
26.74167,39
26.75000,39
26.75833,39
26.76667,38
26.77500,38
26.78333,38
26.79167,39
26.80000,39
26.80833,39
26.81667,39
26.82500,39
26.83333,39
26.84167,39
26.85000,39
26.85833,38
26.86667,38
26.87500,38
26.88333,37
26.89167,37
26.90000,37
26.90833,37
26.91667,37
26.92500,37
26.93333,36
26.94167,36
26.95000,35
26.95833,35
26.96667,35
26.97500,35
26.98333,34
26.99167,34
27.00000,34
27.00833,34
27.01667,34
27.02500,34
27.03333,34
27.04167,34
27.05000,34
27.05833,34
27.06667,34
27.07500,33
27.08333,33
27.09167,32
27.10000,32
27.10833,32
27.11667,32
27.12500,32
27.13333,32
27.14167,32
27.15000,32
27.15833,31
27.16667,31
27.17500,31
27.18333,32
27.19167,32
27.20000,31
27.20833,31
27.21667,31
27.22500,30
27.23333,30
27.24167,29
27.25000,29
27.25833,29
27.26667,29
27.27500,29
27.28333,29
27.29167,29
27.30000,29
27.30833,29
27.31667,29
27.32500,29
27.33333,29
27.34167,29
27.35000,28
27.35833,28
27.36667,27
27.37500,27
27.38333,27
27.39167,27
27.40000,27
27.40833,28
27.41667,27
27.42500,27
27.43333,27
27.44167,27
27.45000,27
27.45833,27
27.46667,26
27.47500,26
27.48333,26
27.49167,26
27.50000,26
27.50833,26
27.51667,26
27.52500,26
27.53333,26
27.54167,27
27.55000,27
27.55833,26
27.56667,26
27.57500,26
27.58333,26
27.59167,25
27.60000,25
27.60833,24
27.61667,24
27.62500,25
27.63333,25
27.64167,25
27.65000,24
27.65833,24
27.66667,24
27.67500,24
27.68333,24
27.69167,24
27.70000,24
27.70833,24
27.71667,24
27.72500,24
27.73333,24
27.74167,23
27.75000,23
27.75833,23
27.76667,23
27.77500,22
27.78333,22
27.79167,22
27.80000,22
27.80833,22
27.81667,22
27.82500,22
27.83333,21
27.84167,21
27.85000,20
27.85833,20
27.86667,19
27.87500,19
27.88333,19
27.89167,19
27.90000,18
27.90833,18
27.91667,18
27.92500,17
27.93333,17
27.94167,16
27.95000,15
27.95833,14
27.96667,13
27.97500,12
27.98333,10
27.99167,10
28.00000,9
28.00833,8
28.01667,7
28.02500,6
28.03333,5
28.04167,3
28.05000,2
28.05833,0
28.06667,-2
28.07500,-4
28.08333,-5
28.09167,-7
28.10000,-9
28.10833,-12
28.11667,-14
28.12500,-17
28.13333,-20
28.14167,-23
28.15000,-26
28.15833,-28
28.16667,-31
28.17500,-33
28.18333,-36
28.19167,-39
28.20000,-42
28.20833,-46
28.21667,-49
28.22500,-52
28.23333,-55
28.24167,-59
28.25000,-62
28.25833,-66
28.26667,-69
28.27500,-72
28.28333,-75
28.29167,-79
28.30000,-82
28.30833,-86
28.31667,-89
28.32500,-93
28.33333,-96
28.34167,-99
28.35000,-102
28.35833,-105
28.36667,-108
28.37500,-111
28.38333,-114
28.39167,-117
28.40000,-120
28.40833,-123
28.41667,-125
28.42500,-127
28.43333,-129
28.44167,-131
28.45000,-132
28.45833,-134
28.46667,-135
28.47500,-137
28.48333,-138
28.49167,-139
28.50000,-139
28.50833,-140
28.51667,-140
28.52500,-140
28.53333,-140
28.54167,-140
28.55000,-140
28.55833,-140
28.56667,-139
28.57500,-138
28.58333,-137
28.59167,-136
28.60000,-135
28.60833,-133
28.61667,-132
28.62500,-130
28.63333,-128
28.64167,-126
28.65000,-123
28.65833,-121
28.66667,-118
28.67500,-116
28.68333,-113
28.69167,-110
28.70000,-108
28.70833,-105
28.71667,-102
28.72500,-99
28.73333,-96
28.74167,-93
28.75000,-90
28.75833,-87
28.76667,-84
28.77500,-82
28.78333,-78
28.79167,-75
28.80000,-72
28.80833,-70
28.81667,-67
28.82500,-64
28.83333,-61
28.84167,-58
28.85000,-56
28.85833,-53
28.86667,-51
28.87500,-49
28.88333,-46
28.89167,-44
28.90000,-41
28.90833,-39
28.91667,-37
28.92500,-35
28.93333,-33
28.94167,-31
28.95000,-29
28.95833,-27
28.96667,-25
28.97500,-23
28.98333,-22
28.99167,-20
29.00000,-19
29.00833,-18
29.01667,-16
29.02500,-15
29.03333,-14
29.04167,-12
29.05000,-11
29.05833,-10
29.06667,-9
29.07500,-8
29.08333,-7
29.09167,-5
29.10000,-4
29.10833,-3
29.11667,-2
29.12500,-1
29.13333,-0
29.14167,0
29.15000,1
29.15833,1
29.16667,2
29.17500,2
29.18333,3
29.19167,4
29.20000,4
29.20833,4
29.21667,5
29.22500,5
29.23333,5
29.24167,6
29.25000,6
29.25833,6
29.26667,7
29.27500,7
29.28333,7
29.29167,7
29.30000,7
29.30833,8
29.31667,8
29.32500,9
29.33333,9
29.34167,10
29.35000,10
29.35833,9
29.36667,9
29.37500,9
29.38333,9
29.39167,9
29.40000,9
29.40833,9
29.41667,9
29.42500,9
29.43333,9
29.44167,9
29.45000,10
29.45833,9
29.46667,9
29.47500,9
29.48333,9
29.49167,9
29.50000,9
29.50833,9
29.51667,9
29.52500,9
29.53333,9
29.54167,9
29.55000,8
29.55833,8
29.56667,9
29.57500,9
29.58333,9
29.59167,8
29.60000,8
29.60833,7
29.61667,7
29.62500,7
29.63333,6
29.64167,5
29.65000,5
29.65833,5
29.66667,4
29.67500,4
29.68333,3
29.69167,3
29.70000,3
29.70833,3
29.71667,2
29.72500,2
29.73333,2
29.74167,2
29.75000,1
29.75833,1
29.76667,0
29.77500,-0
29.78333,-1
29.79167,-2
29.80000,-3
29.80833,-4
29.81667,-4
29.82500,-5
29.83333,-5
29.84167,-6
29.85000,-7
29.85833,-8
29.86667,-9
29.87500,-10
29.88333,-11
29.89167,-12
29.90000,-12
29.90833,-13
29.91667,-13
29.92500,-15
29.93333,-16
29.94167,-17
29.95000,-19
29.95833,-20
29.96667,-21
29.97500,-21
29.98333,-23
29.99167,-24
30.00000,-25
30.00833,-27
30.01667,-28
30.02500,-29
30.03333,-30
30.04167,-31
30.05000,-31
30.05833,-32
30.06667,-33
30.07500,-35
30.08333,-36
30.09167,-37
30.10000,-38
30.10833,-38
30.11667,-39
30.12500,-40
30.13333,-41
30.14167,-42
30.15000,-43
30.15833,-44
30.16667,-45
30.17500,-46
30.18333,-46
30.19167,-47
30.20000,-47
30.20833,-47
30.21667,-48
30.22500,-48
30.23333,-48
30.24167,-49
30.25000,-50
30.25833,-50
30.26667,-50
30.27500,-50
30.28333,-50
30.29167,-50
30.30000,-50
30.30833,-50
30.31667,-50
30.32500,-50
30.33333,-49
30.34167,-49
30.35000,-48
30.35833,-48
30.36667,-47
30.37500,-46
30.38333,-46
30.39167,-45
30.40000,-45
30.40833,-44
30.41667,-43
30.42500,-42
30.43333,-41
30.44167,-40
30.45000,-39
30.45833,-38
30.46667,-38
30.47500,-37
30.48333,-36
30.49167,-35
30.50000,-34
30.50833,-33
30.51667,-32
30.52500,-31
30.53333,-30
30.54167,-28
30.55000,-27
30.55833,-26
30.56667,-25
30.57500,-24
30.58333,-23
30.59167,-22
30.60000,-21
30.60833,-20
30.61667,-19
30.62500,-18
30.63333,-17
30.64167,-16
30.65000,-15
30.65833,-14
30.66667,-13
30.67500,-13
30.68333,-12
30.69167,-11
30.70000,-10
30.70833,-9
30.71667,-8
30.72500,-8
30.73333,-7
30.74167,-7
30.75000,-6
30.75833,-5
30.76667,-4
30.77500,-3
30.78333,-3
30.79167,-3
30.80000,-2
30.80833,-2
30.81667,-1
30.82500,-1
30.83333,-0
30.84167,0
30.85000,1
30.85833,1
30.86667,2
30.87500,2
30.88333,2
30.89167,3
30.90000,3
30.90833,4
30.91667,4
30.92500,4
30.93333,4
30.94167,4
30.95000,4
30.95833,5
30.96667,5
30.97500,5
30.98333,5
30.99167,5
31.00000,5
31.00833,5
31.01667,5
31.02500,5
31.03333,6
31.04167,6
31.05000,6
31.05833,6
31.06667,6
31.07500,6
31.08333,6
31.09167,6
31.10000,6
31.10833,6
31.11667,7
31.12500,7
31.13333,7
31.14167,7
31.15000,7
31.15833,7
31.16667,7
31.17500,7
31.18333,7
31.19167,7
31.20000,7
31.20833,7
31.21667,8
31.22500,8
31.23333,8
31.24167,8
31.25000,8
31.25833,8
31.26667,8
31.27500,8
31.28333,8
31.29167,9
31.30000,9
31.30833,9
31.31667,9
31.32500,9
31.33333,9
31.34167,9
31.35000,9
31.35833,9
31.36667,9
31.37500,9
31.38333,9
31.39167,9
31.40000,9
31.40833,9
31.41667,9
31.42500,8
31.43333,9
31.44167,9
31.45000,9
31.45833,9
31.46667,9
31.47500,9
31.48333,9
31.49167,10
31.50000,10
31.50833,10
31.51667,11
31.52500,11
31.53333,11
31.54167,11
31.55000,11
31.55833,11
31.56667,11
31.57500,11
31.58333,11
31.59167,11
31.60000,11
31.60833,11
31.61667,11
31.62500,11
31.63333,11
31.64167,11
31.65000,11
31.65833,11
31.66667,11
31.67500,11
31.68333,11
31.69167,10
31.70000,10
31.70833,10
31.71667,10
31.72500,10
31.73333,10
31.74167,10
31.75000,10
31.75833,10
31.76667,10
31.77500,10
31.78333,10
31.79167,10
31.80000,10
31.80833,10
31.81667,10
31.82500,10
31.83333,10
31.84167,10
31.85000,10
31.85833,10
31.86667,10
31.87500,10
31.88333,11
31.89167,11
31.90000,11
31.90833,11
31.91667,11
31.92500,11
31.93333,11
31.94167,11
31.95000,11
31.95833,11
31.96667,11
31.97500,11
31.98333,11
31.99167,11
32.00000,11
32.00833,11
32.01667,10
32.02500,10
32.03333,10
32.04167,10
32.05000,10
32.05833,10
32.06667,10
32.07500,10
32.08333,11
32.09167,11
32.10000,11
32.10833,11
32.11667,11
32.12500,11
32.13333,11
32.14167,11
32.15000,11
32.15833,10
32.16667,10
32.17500,10
32.18333,11
32.19167,10
32.20000,10
32.20833,10
32.21667,10
32.22500,10
32.23333,10
32.24167,10
32.25000,10
32.25833,10
32.26667,10
32.27500,10
32.28333,9
32.29167,9
32.30000,9
32.30833,9
32.31667,10
32.32500,10
32.33333,10
32.34167,10
32.35000,10
32.35833,10
32.36667,10
32.37500,10
32.38333,10
32.39167,10
32.40000,11
32.40833,11
32.41667,11
32.42500,11
32.43333,11
32.44167,11
32.45000,11
32.45833,11
32.46667,11
32.47500,11
32.48333,11
32.49167,11
32.50000,11
32.50833,11
32.51667,11
32.52500,11
32.53333,11
32.54167,11
32.55000,11
32.55833,11
32.56667,10
32.57500,10
32.58333,11
32.59167,11
32.60000,11
32.60833,11
32.61667,11
32.62500,11
32.63333,11
32.64167,12
32.65000,12
32.65833,12
32.66667,12
32.67500,12
32.68333,12
32.69167,12
32.70000,12
32.70833,11
32.71667,11
32.72500,11
32.73333,12
32.74167,11
32.75000,11
32.75833,11
32.76667,11
32.77500,12
32.78333,12
32.79167,12
32.80000,12
32.80833,11
32.81667,12
32.82500,12
32.83333,12
32.84167,12
32.85000,11
32.85833,11
32.86667,11
32.87500,11
32.88333,11
32.89167,11
32.90000,11
32.90833,11
32.91667,11
32.92500,11
32.93333,11
32.94167,11
32.95000,12
32.95833,12
32.96667,11
32.97500,11
32.98333,11
32.99167,11
33.00000,12
33.00833,11
33.01667,11
33.02500,12
33.03333,12
33.04167,12
33.05000,12
33.05833,12
33.06667,12
33.07500,12
33.08333,12
33.09167,12
33.10000,12
33.10833,12
33.11667,11
33.12500,11
33.13333,11
33.14167,12
33.15000,12
33.15833,12
33.16667,12
33.17500,12
33.18333,11
33.19167,11
33.20000,11
33.20833,11
33.21667,12
33.22500,12
33.23333,12
33.24167,11
33.25000,11
33.25833,11
33.26667,11
33.27500,11
33.28333,11
33.29167,11
33.30000,11
33.30833,11
33.31667,11
33.32500,11
33.33333,10
33.34167,10
33.35000,10
33.35833,10
33.36667,10
33.37500,10
33.38333,10
33.39167,10
33.40000,10
33.40833,10
33.41667,10
33.42500,10
33.43333,10
33.44167,10
33.45000,10
33.45833,10
33.46667,10
33.47500,10
33.48333,10
33.49167,10
33.50000,10
33.50833,10
33.51667,10
33.52500,10
33.53333,10
33.54167,9
33.55000,9
33.55833,9
33.56667,9
33.57500,9
33.58333,10
33.59167,10
33.60000,10
33.60833,10
33.61667,9
33.62500,9
33.63333,9
33.64167,8
33.65000,9
33.65833,9
33.66667,9
33.67500,9
33.68333,9
33.69167,9
33.70000,9
33.70833,8
33.71667,8
33.72500,8
33.73333,9
33.74167,9
33.75000,9
33.75833,8
33.76667,8
33.77500,9
33.78333,9
33.79167,9
33.80000,9
33.80833,9
33.81667,8
33.82500,8
33.83333,8
33.84167,8
33.85000,9
33.85833,9
33.86667,9
33.87500,9
33.88333,9
33.89167,9
33.90000,9
33.90833,9
33.91667,9
33.92500,9
33.93333,9
33.94167,9
33.95000,9
33.95833,8
33.96667,8
33.97500,8
33.98333,8
33.99167,9
34.00000,9
34.00833,9
34.01667,8
34.02500,8
34.03333,8
34.04167,8
34.05000,8
34.05833,8
34.06667,8
34.07500,9
34.08333,9
34.09167,9
34.10000,9
34.10833,9
34.11667,9
34.12500,9
34.13333,10
34.14167,10
34.15000,9
34.15833,10
34.16667,9
34.17500,9
34.18333,9
34.19167,9
34.20000,9
34.20833,9
34.21667,9
34.22500,9
34.23333,9
34.24167,9
34.25000,8
34.25833,9
34.26667,9
34.27500,9
34.28333,9
34.29167,9
34.30000,9
34.30833,9
34.31667,9
34.32500,9
34.33333,9
34.34167,9
34.35000,9
34.35833,9
34.36667,9
34.37500,9
34.38333,9
34.39167,9
34.40000,9
34.40833,9
34.41667,8
34.42500,8
34.43333,8
34.44167,8
34.45000,8
34.45833,8
34.46667,9
34.47500,9
34.48333,10
34.49167,10
34.50000,10
34.50833,10
34.51667,9
34.52500,9
34.53333,9
34.54167,8
34.55000,8
34.55833,9
34.56667,9
34.57500,9
34.58333,9
34.59167,9
34.60000,9
34.60833,9
34.61667,9
34.62500,9
34.63333,9
34.64167,9
34.65000,9
34.65833,10
34.66667,9
34.67500,9
34.68333,9
34.69167,9
34.70000,9
34.70833,10
34.71667,9
34.72500,10
34.73333,10
34.74167,10
34.75000,10
34.75833,10
34.76667,10
34.77500,10
34.78333,10
34.79167,10
34.80000,9
34.80833,9
34.81667,9
34.82500,9
34.83333,9
34.84167,9
34.85000,10
34.85833,10
34.86667,10
34.87500,10
34.88333,10
34.89167,10
34.90000,10
34.90833,10
34.91667,10
34.92500,10
34.93333,10
34.94167,9
34.95000,9
34.95833,9
34.96667,9
34.97500,9
34.98333,9
34.99167,9
35.00000,8
35.00833,8
35.01667,8
35.02500,8
35.03333,8
35.04167,8
35.05000,8
35.05833,8
35.06667,8
35.07500,8
35.08333,9
35.09167,9
35.10000,9
35.10833,9
35.11667,9
35.12500,9
35.13333,10
35.14167,10
35.15000,10
35.15833,9
35.16667,9
35.17500,9
35.18333,9
35.19167,9
35.20000,9
35.20833,9
35.21667,9
35.22500,9
35.23333,9
35.24167,9
35.25000,9
35.25833,8
35.26667,8
35.27500,8
35.28333,9
35.29167,9
35.30000,9
35.30833,9
35.31667,9
35.32500,9
35.33333,9
35.34167,9
35.35000,9
35.35833,10
35.36667,9
35.37500,9
35.38333,9
35.39167,9
35.40000,9
35.40833,10
35.41667,10
35.42500,10
35.43333,10
35.44167,10
35.45000,10
35.45833,10
35.46667,10
35.47500,10
35.48333,10
35.49167,10
35.50000,9
35.50833,9
35.51667,9
35.52500,9
35.53333,9
35.54167,9
35.55000,9
35.55833,9
35.56667,8
35.57500,8
35.58333,8
35.59167,8
35.60000,9
35.60833,9
35.61667,9
35.62500,9
35.63333,9
35.64167,10
35.65000,10
35.65833,10
35.66667,10
35.67500,10
35.68333,10
35.69167,10
35.70000,10
35.70833,9
35.71667,9
35.72500,10
35.73333,10
35.74167,9
35.75000,9
35.75833,9
35.76667,10
35.77500,10
35.78333,10
35.79167,10
35.80000,10
35.80833,10
35.81667,10
35.82500,10
35.83333,10
35.84167,9
35.85000,9
35.85833,9
35.86667,9
35.87500,9
35.88333,9
35.89167,9
35.90000,9
35.90833,9
35.91667,9
35.92500,9
35.93333,9
35.94167,9
35.95000,9
35.95833,9
35.96667,9
35.97500,9
35.98333,10
35.99167,10
36.00000,10
36.00833,10
36.01667,10
36.02500,10
36.03333,9
36.04167,9
36.05000,10
36.05833,9
36.06667,9
36.07500,9
36.08333,9
36.09167,8
36.10000,8
36.10833,8
36.11667,8
36.12500,8
36.13333,9
36.14167,9
36.15000,9
36.15833,9
36.16667,9
36.17500,8
36.18333,8
36.19167,8
36.20000,8
36.20833,8
36.21667,8
36.22500,8
36.23333,8
36.24167,8
36.25000,8
36.25833,8
36.26667,8
36.27500,8
36.28333,8
36.29167,8
36.30000,8
36.30833,8
36.31667,8
36.32500,8
36.33333,8
36.34167,7
36.35000,7
36.35833,8
36.36667,8
36.37500,8
36.38333,7
36.39167,8
36.40000,8
36.40833,8
36.41667,8
36.42500,8
36.43333,8
36.44167,8
36.45000,8
36.45833,8
36.46667,8
36.47500,7
36.48333,7
36.49167,7
36.50000,8
36.50833,8
36.51667,8
36.52500,8
36.53333,7
36.54167,7
36.55000,6
36.55833,6
36.56667,6
36.57500,6
36.58333,6
36.59167,6
36.60000,6
36.60833,6
36.61667,7
36.62500,7
36.63333,7
36.64167,6
36.65000,6
36.65833,6
36.66667,6
36.67500,6
36.68333,6
36.69167,6
36.70000,6
36.70833,6
36.71667,7
36.72500,7
36.73333,8
36.74167,8
36.75000,8
36.75833,8
36.76667,8
36.77500,8
36.78333,8
36.79167,8
36.80000,8
36.80833,9
36.81667,9
36.82500,9
36.83333,9
36.84167,8
36.85000,8
36.85833,9
36.86667,9
36.87500,9
36.88333,9
36.89167,9
36.90000,9
36.90833,9
36.91667,9
36.92500,9
36.93333,9
36.94167,9
36.95000,9
36.95833,9
36.96667,9
36.97500,9
36.98333,9
36.99167,9
37.00000,9
37.00833,9
37.01667,9
37.02500,9
37.03333,10
37.04167,9
37.05000,9
37.05833,9
37.06667,9
37.07500,9
37.08333,9
37.09167,9
37.10000,9
37.10833,9
37.11667,9
37.12500,9
37.13333,9
37.14167,10
37.15000,10
37.15833,10
37.16667,9
37.17500,9
37.18333,9
37.19167,9
37.20000,9
37.20833,9
37.21667,9
37.22500,9
37.23333,9
37.24167,9
37.25000,9
37.25833,9
37.26667,9
37.27500,9
37.28333,9
37.29167,9
37.30000,9
37.30833,9
37.31667,9
37.32500,9
37.33333,9
37.34167,9
37.35000,9
37.35833,8
37.36667,8
37.37500,8
37.38333,9
37.39167,8
37.40000,9
37.40833,9
37.41667,9
37.42500,9
37.43333,9
37.44167,9
37.45000,9
37.45833,9
37.46667,9
37.47500,9
37.48333,9
37.49167,9
37.50000,10
37.50833,10
37.51667,10
37.52500,9
37.53333,9
37.54167,9
37.55000,9
37.55833,9
37.56667,9
37.57500,9
37.58333,9
37.59167,10
37.60000,9
37.60833,9
37.61667,9
37.62500,9
37.63333,9
37.64167,9
37.65000,9
37.65833,9
37.66667,9
37.67500,9
37.68333,9
37.69167,9
37.70000,9
37.70833,9
37.71667,9
37.72500,9
37.73333,9
37.74167,8
37.75000,8
37.75833,8
37.76667,8
37.77500,8
37.78333,8
37.79167,8
37.80000,8
37.80833,8
37.81667,8
37.82500,8
37.83333,8
37.84167,9
37.85000,9
37.85833,9
37.86667,9
37.87500,9
37.88333,9
37.89167,9
37.90000,9
37.90833,9
37.91667,9
37.92500,9
37.93333,9
37.94167,9
37.95000,9
37.95833,9
37.96667,9
37.97500,9
37.98333,9
37.99167,9
38.00000,9
38.00833,9
38.01667,9
38.02500,9
38.03333,9
38.04167,9
38.05000,9
38.05833,9
38.06667,9
38.07500,9
38.08333,9
38.09167,9
38.10000,8
38.10833,8
38.11667,9
38.12500,9
38.13333,8
38.14167,9
38.15000,9
38.15833,9
38.16667,9
38.17500,9
38.18333,9
38.19167,9
38.20000,9
38.20833,9
38.21667,9
38.22500,9
38.23333,9
38.24167,9
38.25000,9
38.25833,9
38.26667,9
38.27500,10
38.28333,10
38.29167,9
38.30000,9
38.30833,9
38.31667,10
38.32500,10
38.33333,10
38.34167,10
38.35000,10
38.35833,10
38.36667,10
38.37500,10
38.38333,10
38.39167,10
38.40000,10
38.40833,10
38.41667,10
38.42500,10
38.43333,10
38.44167,10
38.45000,10
38.45833,11
38.46667,11
38.47500,11
38.48333,11
38.49167,11
38.50000,11
38.50833,11
38.51667,11
38.52500,11
38.53333,11
38.54167,11
38.55000,11
38.55833,11
38.56667,11
38.57500,11
38.58333,11
38.59167,11
38.60000,11
38.60833,11
38.61667,11
38.62500,11
38.63333,11
38.64167,10
38.65000,10
38.65833,10
38.66667,10
38.67500,11
38.68333,11
38.69167,11
38.70000,11
38.70833,11
38.71667,10
38.72500,10
38.73333,10
38.74167,10
38.75000,10
38.75833,10
38.76667,10
38.77500,10
38.78333,10
38.79167,10
38.80000,11
38.80833,11
38.81667,11
38.82500,11
38.83333,10
38.84167,10
38.85000,10
38.85833,10
38.86667,10
38.87500,10
38.88333,10
38.89167,10
38.90000,9
38.90833,9
38.91667,9
38.92500,9
38.93333,9
38.94167,9
38.95000,9
38.95833,9
38.96667,9
38.97500,9
38.98333,9
38.99167,9
39.00000,9
39.00833,9
39.01667,8
39.02500,8
39.03333,8
39.04167,9
39.05000,9
39.05833,8
39.06667,8
39.07500,8
39.08333,8
39.09167,9
39.10000,9
39.10833,8
39.11667,8
39.12500,9
39.13333,9
39.14167,9
39.15000,9
39.15833,9
39.16667,9
39.17500,9
39.18333,9
39.19167,9
39.20000,9
39.20833,9
39.21667,9
39.22500,9
39.23333,9
39.24167,9
39.25000,9
39.25833,9
39.26667,9
39.27500,9
39.28333,9
39.29167,9
39.30000,9
39.30833,9
39.31667,9
39.32500,9
39.33333,8
39.34167,9
39.35000,9
39.35833,8
39.36667,9
39.37500,9
39.38333,9
39.39167,9
39.40000,9
39.40833,9
39.41667,9
39.42500,8
39.43333,8
39.44167,9
39.45000,9
39.45833,9
39.46667,10
39.47500,10
39.48333,9
39.49167,10
39.50000,10
39.50833,10
39.51667,10
39.52500,9
39.53333,9
39.54167,9
39.55000,9
39.55833,9
39.56667,9
39.57500,9
39.58333,9
39.59167,9
39.60000,9
39.60833,9
39.61667,9
39.62500,9
39.63333,8
39.64167,8
39.65000,8
39.65833,8
39.66667,8
39.67500,9
39.68333,9
39.69167,9
39.70000,9
39.70833,9
39.71667,9
39.72500,9
39.73333,9
39.74167,8
39.75000,8
39.75833,8
39.76667,8
39.77500,8
39.78333,8
39.79167,8
39.80000,8
39.80833,8
39.81667,8
39.82500,9
39.83333,9
39.84167,9
39.85000,9
39.85833,9
39.86667,9
39.87500,9
39.88333,9
39.89167,9
39.90000,9
39.90833,9
39.91667,9
39.92500,9
39.93333,9
39.94167,9
39.95000,8
39.95833,8
39.96667,8
39.97500,9
39.98333,9
39.99167,9
40.00000,8

[Fraction Collection Report]
# of Fractions,0
