[Header]
Application Name,LabSolutions
Version,5.97 SP1
Data File Name,C:\Users\cremerlab\Desktop\griffin\2021-03-26_calibration\2021-03-26_calibration_3262021_005_005.lcd
Output Date,3/26/2021
Output Time,9:05:57 PM

[File Information]
Type,Data File
Generated,3/26/2021 8:25:37 PM
Generated by,System Administrator
Modified,3/26/2021 9:05:57 PM
Modified by,System Administrator

[Sample Information]
Operator Name,System Administrator
Acquired,3/26/2021 8:25:56 PM
Sample Type,1:Standard
Level,5
Sample Name,2021-03-26_calibration_10mM
Sample ID,005
ISTD Amount1,1
ISTD Amount2,1
ISTD Amount3,1
ISTD Amount4,1
ISTD Amount5,1
ISTD Amount6,1
ISTD Amount7,1
ISTD Amount8,1
ISTD Amount9,1
ISTD Amount10,1
ISTD Amount11,1
ISTD Amount12,1
ISTD Amount13,1
ISTD Amount14,1
ISTD Amount15,1
ISTD Amount16,1
ISTD Amount17,1
ISTD Amount18,1
ISTD Amount19,1
ISTD Amount20,1
ISTD Amount21,1
ISTD Amount22,1
ISTD Amount23,1
ISTD Amount24,1
ISTD Amount25,1
ISTD Amount26,1
ISTD Amount27,1
ISTD Amount28,1
ISTD Amount29,1
ISTD Amount30,1
ISTD Amount31,1
ISTD Amount32,1
Sample Amount,1
Dilution Factor,1
Vial#,5
Injection Volume,20

[Original Files]
Data File,C:\Users\cremerlab\Desktop\griffin\2021-03-26_calibration\2021-03-26_calibration_3262021_005_005.lcd
Method File,C:\LabSolutions\Data\Project1\organicacidsetc2.lcm
Batch File,C:\Users\cremerlab\Desktop\griffin\2021-03-26_calibration\2021-03-26_calibration.lcb
Report Format File,c:\LabSolutions\System\DEFAULT.lsr

[File Description]


[Configuration]
Instrument Name,HPLC-PC-Instrument1
Instrument #,1
Line #,1
# of Detectors,2
Detector ID,Detector A,Detector B
Detector Name,Detector A,Detector B
# of Channels,1,1

[LC Chromatogram(Detector B-Ch1)]
Interval(msec),500
# of Points,4801
Start Time(min),0.000
End Time(min),40.000
Intensity Units,mV
Intensity Multiplier,0.001
R.Time (min),Intensity
0.00000,1
0.00833,1
0.01667,0
0.02500,0
0.03333,-0
0.04167,-0
0.05000,-1
0.05833,-1
0.06667,-1
0.07500,-1
0.08333,-1
0.09167,-0
0.10000,-0
0.10833,-0
0.11667,-0
0.12500,0
0.13333,-0
0.14167,-0
0.15000,-1
0.15833,-1
0.16667,-1
0.17500,-1
0.18333,-1
0.19167,-1
0.20000,-1
0.20833,-0
0.21667,-0
0.22500,-0
0.23333,0
0.24167,0
0.25000,0
0.25833,0
0.26667,0
0.27500,0
0.28333,0
0.29167,-0
0.30000,-0
0.30833,-0
0.31667,-0
0.32500,-0
0.33333,-0
0.34167,-0
0.35000,-0
0.35833,-0
0.36667,-0
0.37500,-0
0.38333,-0
0.39167,-1
0.40000,-1
0.40833,-1
0.41667,-0
0.42500,-0
0.43333,-0
0.44167,-0
0.45000,-1
0.45833,-1
0.46667,-1
0.47500,-0
0.48333,-0
0.49167,-1
0.50000,-0
0.50833,-0
0.51667,-1
0.52500,-1
0.53333,-1
0.54167,-1
0.55000,-1
0.55833,-1
0.56667,-0
0.57500,-0
0.58333,0
0.59167,0
0.60000,0
0.60833,0
0.61667,0
0.62500,0
0.63333,0
0.64167,0
0.65000,-0
0.65833,-1
0.66667,-1
0.67500,-2
0.68333,-2
0.69167,-2
0.70000,-2
0.70833,-2
0.71667,-2
0.72500,-2
0.73333,-2
0.74167,-1
0.75000,-1
0.75833,-2
0.76667,-2
0.77500,-2
0.78333,-2
0.79167,-2
0.80000,-2
0.80833,-1
0.81667,-1
0.82500,-1
0.83333,-1
0.84167,-1
0.85000,-1
0.85833,-1
0.86667,-1
0.87500,-0
0.88333,-0
0.89167,-0
0.90000,-0
0.90833,-1
0.91667,-0
0.92500,-0
0.93333,-0
0.94167,-0
0.95000,-1
0.95833,-1
0.96667,-0
0.97500,-0
0.98333,-0
0.99167,0
1.00000,0
1.00833,0
1.01667,0
1.02500,0
1.03333,-0
1.04167,-0
1.05000,-0
1.05833,-0
1.06667,-0
1.07500,-1
1.08333,-1
1.09167,-1
1.10000,-1
1.10833,-1
1.11667,-1
1.12500,-1
1.13333,-1
1.14167,-1
1.15000,-0
1.15833,-0
1.16667,0
1.17500,0
1.18333,0
1.19167,0
1.20000,0
1.20833,0
1.21667,0
1.22500,0
1.23333,-0
1.24167,-0
1.25000,-0
1.25833,-1
1.26667,-0
1.27500,-0
1.28333,0
1.29167,-0
1.30000,-0
1.30833,-0
1.31667,-0
1.32500,-0
1.33333,-0
1.34167,-0
1.35000,-0
1.35833,-0
1.36667,0
1.37500,1
1.38333,1
1.39167,1
1.40000,0
1.40833,-0
1.41667,-0
1.42500,0
1.43333,0
1.44167,0
1.45000,0
1.45833,-0
1.46667,-0
1.47500,-0
1.48333,-0
1.49167,0
1.50000,1
1.50833,1
1.51667,1
1.52500,1
1.53333,1
1.54167,1
1.55000,0
1.55833,0
1.56667,0
1.57500,-0
1.58333,-0
1.59167,-0
1.60000,-0
1.60833,0
1.61667,0
1.62500,0
1.63333,0
1.64167,0
1.65000,-0
1.65833,0
1.66667,0
1.67500,0
1.68333,0
1.69167,0
1.70000,0
1.70833,-0
1.71667,-0
1.72500,-1
1.73333,-1
1.74167,-0
1.75000,-0
1.75833,0
1.76667,0
1.77500,0
1.78333,0
1.79167,0
1.80000,-0
1.80833,-0
1.81667,-0
1.82500,-0
1.83333,-0
1.84167,-1
1.85000,-1
1.85833,-1
1.86667,-2
1.87500,-2
1.88333,-2
1.89167,-1
1.90000,-1
1.90833,-0
1.91667,-0
1.92500,-0
1.93333,0
1.94167,-0
1.95000,-0
1.95833,-0
1.96667,-1
1.97500,-1
1.98333,-0
1.99167,0
2.00000,0
2.00833,0
2.01667,0
2.02500,0
2.03333,0
2.04167,0
2.05000,0
2.05833,-0
2.06667,-1
2.07500,-1
2.08333,-1
2.09167,-1
2.10000,-0
2.10833,-1
2.11667,-1
2.12500,-1
2.13333,-1
2.14167,-1
2.15000,-0
2.15833,-0
2.16667,-0
2.17500,-0
2.18333,-0
2.19167,-0
2.20000,-0
2.20833,-1
2.21667,-1
2.22500,-1
2.23333,-1
2.24167,-1
2.25000,-0
2.25833,-0
2.26667,-1
2.27500,-1
2.28333,-1
2.29167,-1
2.30000,-1
2.30833,-0
2.31667,-0
2.32500,-0
2.33333,-1
2.34167,-1
2.35000,-1
2.35833,-1
2.36667,-1
2.37500,-1
2.38333,-1
2.39167,-1
2.40000,-1
2.40833,-1
2.41667,-1
2.42500,-1
2.43333,-1
2.44167,-1
2.45000,-1
2.45833,-1
2.46667,-0
2.47500,-0
2.48333,-0
2.49167,-0
2.50000,-0
2.50833,-0
2.51667,-0
2.52500,0
2.53333,-0
2.54167,-0
2.55000,-0
2.55833,-1
2.56667,-1
2.57500,-1
2.58333,-1
2.59167,-0
2.60000,-0
2.60833,-0
2.61667,-0
2.62500,-1
2.63333,-1
2.64167,-1
2.65000,-1
2.65833,-2
2.66667,-2
2.67500,-1
2.68333,-1
2.69167,-1
2.70000,-1
2.70833,-0
2.71667,-0
2.72500,-0
2.73333,-0
2.74167,-0
2.75000,-0
2.75833,-0
2.76667,-0
2.77500,-0
2.78333,-1
2.79167,-1
2.80000,-1
2.80833,-1
2.81667,-1
2.82500,-1
2.83333,-1
2.84167,-1
2.85000,-1
2.85833,-0
2.86667,-0
2.87500,0
2.88333,-0
2.89167,-0
2.90000,-0
2.90833,-0
2.91667,-0
2.92500,-0
2.93333,-0
2.94167,-0
2.95000,-0
2.95833,-0
2.96667,-0
2.97500,0
2.98333,0
2.99167,0
3.00000,0
3.00833,0
3.01667,0
3.02500,0
3.03333,0
3.04167,0
3.05000,-0
3.05833,-0
3.06667,-1
3.07500,-1
3.08333,-1
3.09167,-1
3.10000,-1
3.10833,-1
3.11667,-1
3.12500,-1
3.13333,-1
3.14167,-0
3.15000,-0
3.15833,-0
3.16667,-0
3.17500,-0
3.18333,0
3.19167,0
3.20000,0
3.20833,0
3.21667,0
3.22500,0
3.23333,-0
3.24167,0
3.25000,0
3.25833,1
3.26667,1
3.27500,1
3.28333,1
3.29167,1
3.30000,0
3.30833,0
3.31667,0
3.32500,0
3.33333,0
3.34167,0
3.35000,0
3.35833,0
3.36667,0
3.37500,0
3.38333,0
3.39167,0
3.40000,0
3.40833,0
3.41667,0
3.42500,0
3.43333,-0
3.44167,0
3.45000,0
3.45833,-0
3.46667,-0
3.47500,0
3.48333,0
3.49167,1
3.50000,1
3.50833,1
3.51667,1
3.52500,1
3.53333,1
3.54167,1
3.55000,1
3.55833,1
3.56667,1
3.57500,1
3.58333,0
3.59167,0
3.60000,0
3.60833,-0
3.61667,-0
3.62500,0
3.63333,0
3.64167,0
3.65000,0
3.65833,-0
3.66667,-0
3.67500,-1
3.68333,-1
3.69167,-0
3.70000,-0
3.70833,-0
3.71667,-1
3.72500,-1
3.73333,-1
3.74167,-1
3.75000,-1
3.75833,-1
3.76667,-1
3.77500,-1
3.78333,-1
3.79167,-1
3.80000,-1
3.80833,-1
3.81667,-1
3.82500,-0
3.83333,0
3.84167,0
3.85000,0
3.85833,0
3.86667,0
3.87500,0
3.88333,0
3.89167,0
3.90000,-0
3.90833,-0
3.91667,-0
3.92500,-0
3.93333,-0
3.94167,-0
3.95000,-0
3.95833,-0
3.96667,-1
3.97500,-1
3.98333,-1
3.99167,-1
4.00000,-0
4.00833,0
4.01667,0
4.02500,1
4.03333,1
4.04167,0
4.05000,0
4.05833,-0
4.06667,-0
4.07500,-0
4.08333,-0
4.09167,-0
4.10000,-1
4.10833,-1
4.11667,-1
4.12500,-1
4.13333,-1
4.14167,-1
4.15000,-1
4.15833,-1
4.16667,-0
4.17500,-0
4.18333,-0
4.19167,-0
4.20000,-0
4.20833,-0
4.21667,-0
4.22500,-1
4.23333,-1
4.24167,-1
4.25000,-1
4.25833,-1
4.26667,-1
4.27500,-2
4.28333,-2
4.29167,-2
4.30000,-2
4.30833,-1
4.31667,-1
4.32500,-1
4.33333,-1
4.34167,-1
4.35000,-1
4.35833,-1
4.36667,-1
4.37500,-1
4.38333,-1
4.39167,-1
4.40000,-1
4.40833,-0
4.41667,-0
4.42500,-0
4.43333,-0
4.44167,-0
4.45000,-0
4.45833,-0
4.46667,-0
4.47500,-0
4.48333,-0
4.49167,-0
4.50000,-0
4.50833,-0
4.51667,-0
4.52500,0
4.53333,0
4.54167,0
4.55000,0
4.55833,0
4.56667,0
4.57500,0
4.58333,0
4.59167,0
4.60000,0
4.60833,0
4.61667,0
4.62500,0
4.63333,0
4.64167,1
4.65000,1
4.65833,1
4.66667,1
4.67500,1
4.68333,0
4.69167,0
4.70000,0
4.70833,-0
4.71667,-0
4.72500,-0
4.73333,-0
4.74167,-0
4.75000,0
4.75833,0
4.76667,1
4.77500,1
4.78333,1
4.79167,1
4.80000,1
4.80833,1
4.81667,1
4.82500,1
4.83333,1
4.84167,1
4.85000,1
4.85833,1
4.86667,1
4.87500,1
4.88333,1
4.89167,1
4.90000,1
4.90833,1
4.91667,1
4.92500,1
4.93333,1
4.94167,1
4.95000,1
4.95833,1
4.96667,1
4.97500,1
4.98333,1
4.99167,1
5.00000,1
5.00833,1
5.01667,1
5.02500,2
5.03333,2
5.04167,2
5.05000,1
5.05833,1
5.06667,1
5.07500,0
5.08333,0
5.09167,0
5.10000,-0
5.10833,-0
5.11667,-0
5.12500,-0
5.13333,-0
5.14167,-0
5.15000,-0
5.15833,0
5.16667,-0
5.17500,-0
5.18333,-0
5.19167,0
5.20000,0
5.20833,0
5.21667,-0
5.22500,-0
5.23333,-0
5.24167,-0
5.25000,-0
5.25833,-0
5.26667,-0
5.27500,-1
5.28333,-1
5.29167,-1
5.30000,-1
5.30833,-1
5.31667,-0
5.32500,-0
5.33333,0
5.34167,-0
5.35000,-1
5.35833,-1
5.36667,-1
5.37500,-1
5.38333,-1
5.39167,-1
5.40000,-1
5.40833,-1
5.41667,-1
5.42500,-1
5.43333,-1
5.44167,-1
5.45000,-1
5.45833,-1
5.46667,-1
5.47500,-1
5.48333,-1
5.49167,-2
5.50000,-2
5.50833,-2
5.51667,-2
5.52500,-2
5.53333,-1
5.54167,-1
5.55000,-1
5.55833,-1
5.56667,-1
5.57500,-1
5.58333,-2
5.59167,-2
5.60000,-2
5.60833,-2
5.61667,-2
5.62500,-2
5.63333,-2
5.64167,-2
5.65000,-2
5.65833,-3
5.66667,-3
5.67500,-3
5.68333,-2
5.69167,-3
5.70000,-3
5.70833,-3
5.71667,-3
5.72500,-3
5.73333,-3
5.74167,-3
5.75000,-3
5.75833,-3
5.76667,-2
5.77500,-2
5.78333,-2
5.79167,-2
5.80000,-2
5.80833,-2
5.81667,-2
5.82500,-2
5.83333,-2
5.84167,-2
5.85000,-2
5.85833,-2
5.86667,-2
5.87500,-2
5.88333,-2
5.89167,-2
5.90000,-2
5.90833,-2
5.91667,-2
5.92500,-2
5.93333,-2
5.94167,-2
5.95000,-2
5.95833,-2
5.96667,-2
5.97500,-2
5.98333,-2
5.99167,-2
6.00000,-2
6.00833,-2
6.01667,-2
6.02500,-2
6.03333,-2
6.04167,-2
6.05000,-2
6.05833,-3
6.06667,-3
6.07500,-3
6.08333,-3
6.09167,-3
6.10000,-2
6.10833,-2
6.11667,-2
6.12500,-2
6.13333,-2
6.14167,-2
6.15000,-2
6.15833,-1
6.16667,-2
6.17500,-2
6.18333,-1
6.19167,-2
6.20000,-2
6.20833,-2
6.21667,-2
6.22500,-2
6.23333,-2
6.24167,-1
6.25000,-1
6.25833,-1
6.26667,-1
6.27500,-1
6.28333,-1
6.29167,-1
6.30000,-1
6.30833,-1
6.31667,-1
6.32500,-2
6.33333,-2
6.34167,-2
6.35000,-2
6.35833,-2
6.36667,-3
6.37500,-3
6.38333,-3
6.39167,-3
6.40000,-4
6.40833,-3
6.41667,-3
6.42500,-3
6.43333,-3
6.44167,-2
6.45000,-2
6.45833,-2
6.46667,-2
6.47500,-2
6.48333,-2
6.49167,-2
6.50000,-2
6.50833,-2
6.51667,-2
6.52500,-2
6.53333,-2
6.54167,-2
6.55000,-3
6.55833,-3
6.56667,-3
6.57500,-3
6.58333,-2
6.59167,-2
6.60000,-2
6.60833,-2
6.61667,-2
6.62500,-2
6.63333,-2
6.64167,-2
6.65000,-2
6.65833,-2
6.66667,-2
6.67500,-2
6.68333,-2
6.69167,-2
6.70000,-2
6.70833,-2
6.71667,-2
6.72500,-2
6.73333,-2
6.74167,-2
6.75000,-2
6.75833,-2
6.76667,-2
6.77500,-2
6.78333,-2
6.79167,-3
6.80000,-2
6.80833,-2
6.81667,-2
6.82500,-2
6.83333,-2
6.84167,-2
6.85000,-2
6.85833,-2
6.86667,-2
6.87500,-2
6.88333,-2
6.89167,-2
6.90000,-2
6.90833,-2
6.91667,-2
6.92500,-2
6.93333,-2
6.94167,-1
6.95000,-1
6.95833,-2
6.96667,-2
6.97500,-2
6.98333,-2
6.99167,-2
7.00000,-2
7.00833,-3
7.01667,-3
7.02500,-3
7.03333,-4
7.04167,-4
7.05000,-3
7.05833,-3
7.06667,-3
7.07500,-3
7.08333,-3
7.09167,-2
7.10000,-2
7.10833,-2
7.11667,-2
7.12500,-2
7.13333,-2
7.14167,-2
7.15000,-2
7.15833,-2
7.16667,-2
7.17500,-1
7.18333,-1
7.19167,-1
7.20000,-1
7.20833,-1
7.21667,-2
7.22500,-2
7.23333,-2
7.24167,-2
7.25000,-2
7.25833,-3
7.26667,-3
7.27500,-3
7.28333,-3
7.29167,-3
7.30000,-3
7.30833,-3
7.31667,-3
7.32500,-3
7.33333,-3
7.34167,-3
7.35000,-2
7.35833,-2
7.36667,-2
7.37500,-3
7.38333,-2
7.39167,-2
7.40000,-2
7.40833,-2
7.41667,-2
7.42500,-2
7.43333,-2
7.44167,-3
7.45000,-3
7.45833,-3
7.46667,-3
7.47500,-3
7.48333,-3
7.49167,-3
7.50000,-3
7.50833,-4
7.51667,-3
7.52500,-3
7.53333,-3
7.54167,-4
7.55000,-4
7.55833,-4
7.56667,-4
7.57500,-4
7.58333,-4
7.59167,-3
7.60000,-4
7.60833,-4
7.61667,-4
7.62500,-3
7.63333,-3
7.64167,-3
7.65000,-3
7.65833,-3
7.66667,-3
7.67500,-2
7.68333,-2
7.69167,-3
7.70000,-3
7.70833,-3
7.71667,-3
7.72500,-3
7.73333,-3
7.74167,-3
7.75000,-3
7.75833,-3
7.76667,-3
7.77500,-3
7.78333,-3
7.79167,-3
7.80000,-3
7.80833,-3
7.81667,-3
7.82500,-3
7.83333,-3
7.84167,-3
7.85000,-3
7.85833,-3
7.86667,-3
7.87500,-3
7.88333,-2
7.89167,-2
7.90000,-2
7.90833,-2
7.91667,-2
7.92500,-2
7.93333,-2
7.94167,-2
7.95000,-3
7.95833,-2
7.96667,-2
7.97500,-2
7.98333,-2
7.99167,-2
8.00000,-2
8.00833,-2
8.01667,-2
8.02500,-3
8.03333,-3
8.04167,-3
8.05000,-3
8.05833,-4
8.06667,-3
8.07500,-4
8.08333,-4
8.09167,-4
8.10000,-4
8.10833,-4
8.11667,-4
8.12500,-4
8.13333,-4
8.14167,-3
8.15000,-3
8.15833,-3
8.16667,-3
8.17500,-3
8.18333,-3
8.19167,-3
8.20000,-3
8.20833,-3
8.21667,-3
8.22500,-3
8.23333,-2
8.24167,-3
8.25000,-2
8.25833,-3
8.26667,-3
8.27500,-3
8.28333,-3
8.29167,-3
8.30000,-3
8.30833,-3
8.31667,-3
8.32500,-3
8.33333,-3
8.34167,-3
8.35000,-3
8.35833,-3
8.36667,-2
8.37500,-2
8.38333,-2
8.39167,-2
8.40000,-3
8.40833,-3
8.41667,-3
8.42500,-3
8.43333,-3
8.44167,-3
8.45000,-3
8.45833,-3
8.46667,-3
8.47500,-3
8.48333,-3
8.49167,-3
8.50000,-3
8.50833,-3
8.51667,-3
8.52500,-3
8.53333,-3
8.54167,-3
8.55000,-4
8.55833,-4
8.56667,-4
8.57500,-3
8.58333,-3
8.59167,-3
8.60000,-3
8.60833,-3
8.61667,-3
8.62500,-3
8.63333,-3
8.64167,-3
8.65000,-3
8.65833,-3
8.66667,-3
8.67500,-3
8.68333,-3
8.69167,-4
8.70000,-4
8.70833,-4
8.71667,-4
8.72500,-4
8.73333,-3
8.74167,-3
8.75000,-3
8.75833,-4
8.76667,-4
8.77500,-4
8.78333,-4
8.79167,-3
8.80000,-3
8.80833,-3
8.81667,-3
8.82500,-3
8.83333,-3
8.84167,-3
8.85000,-3
8.85833,-3
8.86667,-3
8.87500,-2
8.88333,-3
8.89167,-3
8.90000,-3
8.90833,-3
8.91667,-2
8.92500,-2
8.93333,-2
8.94167,-3
8.95000,-3
8.95833,-3
8.96667,-3
8.97500,-3
8.98333,-3
8.99167,-3
9.00000,-3
9.00833,-3
9.01667,-3
9.02500,-3
9.03333,-3
9.04167,-3
9.05000,-3
9.05833,-3
9.06667,-3
9.07500,-3
9.08333,-4
9.09167,-4
9.10000,-4
9.10833,-4
9.11667,-4
9.12500,-4
9.13333,-4
9.14167,-4
9.15000,-4
9.15833,-4
9.16667,-3
9.17500,-3
9.18333,-3
9.19167,-3
9.20000,-3
9.20833,-3
9.21667,-3
9.22500,-3
9.23333,-3
9.24167,-3
9.25000,-3
9.25833,-3
9.26667,-3
9.27500,-3
9.28333,-3
9.29167,-3
9.30000,-3
9.30833,-3
9.31667,-3
9.32500,-3
9.33333,-3
9.34167,-2
9.35000,-2
9.35833,-2
9.36667,-2
9.37500,-2
9.38333,-2
9.39167,-2
9.40000,-2
9.40833,-2
9.41667,-2
9.42500,-2
9.43333,-2
9.44167,-2
9.45000,-2
9.45833,-2
9.46667,-3
9.47500,-3
9.48333,-3
9.49167,-3
9.50000,-3
9.50833,-3
9.51667,-3
9.52500,-3
9.53333,-3
9.54167,-3
9.55000,-3
9.55833,-3
9.56667,-2
9.57500,-2
9.58333,-3
9.59167,-3
9.60000,-3
9.60833,-3
9.61667,-3
9.62500,-3
9.63333,-3
9.64167,-3
9.65000,-3
9.65833,-3
9.66667,-3
9.67500,-3
9.68333,-4
9.69167,-4
9.70000,-4
9.70833,-3
9.71667,-3
9.72500,-3
9.73333,-3
9.74167,-3
9.75000,-3
9.75833,-3
9.76667,-3
9.77500,-3
9.78333,-3
9.79167,-2
9.80000,-2
9.80833,-2
9.81667,-3
9.82500,-3
9.83333,-3
9.84167,-3
9.85000,-4
9.85833,-4
9.86667,-4
9.87500,-3
9.88333,-3
9.89167,-3
9.90000,-3
9.90833,-3
9.91667,-3
9.92500,-3
9.93333,-4
9.94167,-4
9.95000,-4
9.95833,-4
9.96667,-4
9.97500,-4
9.98333,-3
9.99167,-3
10.00000,-3
10.00833,-4
10.01667,-4
10.02500,-4
10.03333,-4
10.04167,-5
10.05000,-5
10.05833,-5
10.06667,-5
10.07500,-5
10.08333,-5
10.09167,-5
10.10000,-5
10.10833,-5
10.11667,-5
10.12500,-5
10.13333,-4
10.14167,-4
10.15000,-4
10.15833,-4
10.16667,-4
10.17500,-4
10.18333,-5
10.19167,-5
10.20000,-5
10.20833,-5
10.21667,-5
10.22500,-5
10.23333,-4
10.24167,-4
10.25000,-4
10.25833,-4
10.26667,-4
10.27500,-3
10.28333,-3
10.29167,-3
10.30000,-3
10.30833,-3
10.31667,-3
10.32500,-4
10.33333,-4
10.34167,-4
10.35000,-5
10.35833,-5
10.36667,-6
10.37500,-6
10.38333,-6
10.39167,-6
10.40000,-6
10.40833,-6
10.41667,-6
10.42500,-6
10.43333,-6
10.44167,-6
10.45000,-7
10.45833,-7
10.46667,-7
10.47500,-7
10.48333,-7
10.49167,-8
10.50000,-8
10.50833,-9
10.51667,-9
10.52500,-10
10.53333,-10
10.54167,-11
10.55000,-13
10.55833,-16
10.56667,-19
10.57500,-23
10.58333,-29
10.59167,-36
10.60000,-46
10.60833,-59
10.61667,-76
10.62500,-99
10.63333,-130
10.64167,-171
10.65000,-223
10.65833,-292
10.66667,-379
10.67500,-489
10.68333,-628
10.69167,-800
10.70000,-1012
10.70833,-1270
10.71667,-1581
10.72500,-1950
10.73333,-2385
10.74167,-2890
10.75000,-3470
10.75833,-4127
10.76667,-4864
10.77500,-5679
10.78333,-6570
10.79167,-7530
10.80000,-8552
10.80833,-9626
10.81667,-10738
10.82500,-11874
10.83333,-13018
10.84167,-14153
10.85000,-15260
10.85833,-16324
10.86667,-17326
10.87500,-18251
10.88333,-19085
10.89167,-19816
10.90000,-20436
10.90833,-20935
10.91667,-21310
10.92500,-21559
10.93333,-21681
10.94167,-21680
10.95000,-21559
10.95833,-21324
10.96667,-20984
10.97500,-20547
10.98333,-20023
10.99167,-19422
11.00000,-18755
11.00833,-18032
11.01667,-17265
11.02500,-16463
11.03333,-15637
11.04167,-14796
11.05000,-13949
11.05833,-13104
11.06667,-12268
11.07500,-11446
11.08333,-10646
11.09167,-9871
11.10000,-9126
11.10833,-8413
11.11667,-7735
11.12500,-7093
11.13333,-6489
11.14167,-5924
11.15000,-5396
11.15833,-4906
11.16667,-4452
11.17500,-4035
11.18333,-3651
11.19167,-3301
11.20000,-2981
11.20833,-2691
11.21667,-2428
11.22500,-2189
11.23333,-1974
11.24167,-1781
11.25000,-1608
11.25833,-1452
11.26667,-1313
11.27500,-1189
11.28333,-1078
11.29167,-979
11.30000,-891
11.30833,-813
11.31667,-743
11.32500,-681
11.33333,-626
11.34167,-577
11.35000,-532
11.35833,-493
11.36667,-458
11.37500,-426
11.38333,-398
11.39167,-372
11.40000,-349
11.40833,-328
11.41667,-309
11.42500,-292
11.43333,-277
11.44167,-263
11.45000,-250
11.45833,-239
11.46667,-228
11.47500,-218
11.48333,-208
11.49167,-200
11.50000,-192
11.50833,-184
11.51667,-178
11.52500,-172
11.53333,-166
11.54167,-160
11.55000,-155
11.55833,-150
11.56667,-145
11.57500,-140
11.58333,-137
11.59167,-133
11.60000,-129
11.60833,-125
11.61667,-122
11.62500,-119
11.63333,-115
11.64167,-113
11.65000,-110
11.65833,-108
11.66667,-105
11.67500,-103
11.68333,-100
11.69167,-98
11.70000,-95
11.70833,-93
11.71667,-91
11.72500,-90
11.73333,-88
11.74167,-87
11.75000,-85
11.75833,-83
11.76667,-82
11.77500,-80
11.78333,-78
11.79167,-77
11.80000,-76
11.80833,-74
11.81667,-73
11.82500,-72
11.83333,-71
11.84167,-69
11.85000,-68
11.85833,-67
11.86667,-66
11.87500,-65
11.88333,-64
11.89167,-63
11.90000,-62
11.90833,-61
11.91667,-61
11.92500,-60
11.93333,-59
11.94167,-58
11.95000,-58
11.95833,-58
11.96667,-57
11.97500,-57
11.98333,-56
11.99167,-55
12.00000,-55
12.00833,-55
12.01667,-54
12.02500,-53
12.03333,-53
12.04167,-52
12.05000,-52
12.05833,-51
12.06667,-51
12.07500,-51
12.08333,-51
12.09167,-51
12.10000,-50
12.10833,-50
12.11667,-50
12.12500,-50
12.13333,-50
12.14167,-49
12.15000,-49
12.15833,-49
12.16667,-49
12.17500,-48
12.18333,-48
12.19167,-48
12.20000,-48
12.20833,-48
12.21667,-48
12.22500,-48
12.23333,-48
12.24167,-48
12.25000,-48
12.25833,-48
12.26667,-47
12.27500,-46
12.28333,-46
12.29167,-46
12.30000,-46
12.30833,-46
12.31667,-45
12.32500,-45
12.33333,-45
12.34167,-45
12.35000,-44
12.35833,-44
12.36667,-44
12.37500,-44
12.38333,-44
12.39167,-44
12.40000,-43
12.40833,-43
12.41667,-43
12.42500,-43
12.43333,-43
12.44167,-43
12.45000,-43
12.45833,-42
12.46667,-41
12.47500,-41
12.48333,-41
12.49167,-41
12.50000,-41
12.50833,-40
12.51667,-40
12.52500,-40
12.53333,-40
12.54167,-40
12.55000,-40
12.55833,-39
12.56667,-39
12.57500,-39
12.58333,-38
12.59167,-38
12.60000,-37
12.60833,-37
12.61667,-37
12.62500,-37
12.63333,-37
12.64167,-37
12.65000,-36
12.65833,-36
12.66667,-36
12.67500,-36
12.68333,-36
12.69167,-35
12.70000,-35
12.70833,-35
12.71667,-35
12.72500,-34
12.73333,-34
12.74167,-33
12.75000,-33
12.75833,-32
12.76667,-32
12.77500,-32
12.78333,-31
12.79167,-30
12.80000,-30
12.80833,-29
12.81667,-29
12.82500,-28
12.83333,-27
12.84167,-26
12.85000,-26
12.85833,-25
12.86667,-25
12.87500,-24
12.88333,-23
12.89167,-22
12.90000,-21
12.90833,-20
12.91667,-19
12.92500,-19
12.93333,-18
12.94167,-18
12.95000,-17
12.95833,-16
12.96667,-15
12.97500,-15
12.98333,-14
12.99167,-14
13.00000,-13
13.00833,-13
13.01667,-12
13.02500,-11
13.03333,-11
13.04167,-10
13.05000,-10
13.05833,-9
13.06667,-9
13.07500,-8
13.08333,-8
13.09167,-7
13.10000,-7
13.10833,-6
13.11667,-6
13.12500,-6
13.13333,-5
13.14167,-5
13.15000,-5
13.15833,-4
13.16667,-4
13.17500,-3
13.18333,-3
13.19167,-3
13.20000,-3
13.20833,-3
13.21667,-3
13.22500,-3
13.23333,-2
13.24167,-2
13.25000,-2
13.25833,-2
13.26667,-3
13.27500,-3
13.28333,-4
13.29167,-5
13.30000,-5
13.30833,-5
13.31667,-5
13.32500,-6
13.33333,-6
13.34167,-6
13.35000,-7
13.35833,-7
13.36667,-8
13.37500,-8
13.38333,-9
13.39167,-9
13.40000,-10
13.40833,-10
13.41667,-11
13.42500,-12
13.43333,-12
13.44167,-12
13.45000,-12
13.45833,-13
13.46667,-13
13.47500,-14
13.48333,-14
13.49167,-15
13.50000,-15
13.50833,-16
13.51667,-16
13.52500,-17
13.53333,-17
13.54167,-17
13.55000,-18
13.55833,-18
13.56667,-19
13.57500,-19
13.58333,-19
13.59167,-19
13.60000,-19
13.60833,-19
13.61667,-19
13.62500,-19
13.63333,-20
13.64167,-20
13.65000,-20
13.65833,-20
13.66667,-19
13.67500,-19
13.68333,-19
13.69167,-19
13.70000,-19
13.70833,-19
13.71667,-19
13.72500,-19
13.73333,-20
13.74167,-20
13.75000,-19
13.75833,-19
13.76667,-19
13.77500,-19
13.78333,-20
13.79167,-20
13.80000,-20
13.80833,-20
13.81667,-20
13.82500,-20
13.83333,-20
13.84167,-20
13.85000,-20
13.85833,-20
13.86667,-20
13.87500,-20
13.88333,-20
13.89167,-20
13.90000,-20
13.90833,-20
13.91667,-20
13.92500,-20
13.93333,-19
13.94167,-19
13.95000,-19
13.95833,-19
13.96667,-19
13.97500,-18
13.98333,-18
13.99167,-18
14.00000,-18
14.00833,-19
14.01667,-19
14.02500,-19
14.03333,-18
14.04167,-18
14.05000,-19
14.05833,-19
14.06667,-19
14.07500,-19
14.08333,-19
14.09167,-18
14.10000,-18
14.10833,-18
14.11667,-18
14.12500,-18
14.13333,-18
14.14167,-18
14.15000,-18
14.15833,-18
14.16667,-18
14.17500,-18
14.18333,-18
14.19167,-18
14.20000,-18
14.20833,-18
14.21667,-18
14.22500,-18
14.23333,-18
14.24167,-18
14.25000,-18
14.25833,-18
14.26667,-17
14.27500,-17
14.28333,-17
14.29167,-18
14.30000,-18
14.30833,-18
14.31667,-18
14.32500,-18
14.33333,-18
14.34167,-17
14.35000,-17
14.35833,-18
14.36667,-18
14.37500,-18
14.38333,-18
14.39167,-18
14.40000,-18
14.40833,-17
14.41667,-17
14.42500,-17
14.43333,-17
14.44167,-17
14.45000,-17
14.45833,-16
14.46667,-16
14.47500,-16
14.48333,-16
14.49167,-16
14.50000,-16
14.50833,-16
14.51667,-15
14.52500,-15
14.53333,-15
14.54167,-16
14.55000,-16
14.55833,-16
14.56667,-16
14.57500,-16
14.58333,-16
14.59167,-16
14.60000,-16
14.60833,-16
14.61667,-16
14.62500,-16
14.63333,-16
14.64167,-16
14.65000,-16
14.65833,-16
14.66667,-16
14.67500,-16
14.68333,-16
14.69167,-15
14.70000,-15
14.70833,-15
14.71667,-15
14.72500,-14
14.73333,-14
14.74167,-14
14.75000,-14
14.75833,-14
14.76667,-14
14.77500,-14
14.78333,-14
14.79167,-14
14.80000,-14
14.80833,-15
14.81667,-15
14.82500,-15
14.83333,-15
14.84167,-15
14.85000,-15
14.85833,-14
14.86667,-14
14.87500,-14
14.88333,-14
14.89167,-13
14.90000,-13
14.90833,-13
14.91667,-12
14.92500,-12
14.93333,-11
14.94167,-11
14.95000,-10
14.95833,-9
14.96667,-8
14.97500,-7
14.98333,-5
14.99167,-3
15.00000,-2
15.00833,0
15.01667,3
15.02500,5
15.03333,8
15.04167,12
15.05000,17
15.05833,22
15.06667,29
15.07500,37
15.08333,46
15.09167,57
15.10000,70
15.10833,85
15.11667,104
15.12500,126
15.13333,152
15.14167,182
15.15000,219
15.15833,261
15.16667,312
15.17500,372
15.18333,442
15.19167,525
15.20000,622
15.20833,734
15.21667,866
15.22500,1018
15.23333,1193
15.24167,1394
15.25000,1625
15.25833,1887
15.26667,2185
15.27500,2521
15.28333,2900
15.29167,3323
15.30000,3794
15.30833,4317
15.31667,4892
15.32500,5525
15.33333,6215
15.34167,6965
15.35000,7776
15.35833,8648
15.36667,9581
15.37500,10573
15.38333,11624
15.39167,12731
15.40000,13890
15.40833,15096
15.41667,16345
15.42500,17630
15.43333,18945
15.44167,20283
15.45000,21635
15.45833,22993
15.46667,24347
15.47500,25689
15.48333,27008
15.49167,28294
15.50000,29538
15.50833,30731
15.51667,31862
15.52500,32924
15.53333,33908
15.54167,34808
15.55000,35615
15.55833,36324
15.56667,36931
15.57500,37430
15.58333,37820
15.59167,38098
15.60000,38264
15.60833,38317
15.61667,38261
15.62500,38095
15.63333,37825
15.64167,37453
15.65000,36985
15.65833,36426
15.66667,35781
15.67500,35057
15.68333,34261
15.69167,33400
15.70000,32483
15.70833,31515
15.71667,30506
15.72500,29461
15.73333,28388
15.74167,27295
15.75000,26187
15.75833,25072
15.76667,23956
15.77500,22844
15.78333,21741
15.79167,20652
15.80000,19581
15.80833,18533
15.81667,17510
15.82500,16516
15.83333,15553
15.84167,14623
15.85000,13728
15.85833,12868
15.86667,12045
15.87500,11260
15.88333,10511
15.89167,9801
15.90000,9128
15.90833,8492
15.91667,7892
15.92500,7327
15.93333,6796
15.94167,6298
15.95000,5832
15.95833,5397
15.96667,4991
15.97500,4613
15.98333,4261
15.99167,3935
16.00000,3632
16.00833,3352
16.01667,3094
16.02500,2855
16.03333,2634
16.04167,2432
16.05000,2245
16.05833,2073
16.06667,1915
16.07500,1770
16.08333,1637
16.09167,1514
16.10000,1402
16.10833,1300
16.11667,1205
16.12500,1119
16.13333,1041
16.14167,969
16.15000,903
16.15833,843
16.16667,788
16.17500,737
16.18333,691
16.19167,648
16.20000,610
16.20833,574
16.21667,541
16.22500,511
16.23333,483
16.24167,457
16.25000,434
16.25833,412
16.26667,393
16.27500,374
16.28333,358
16.29167,342
16.30000,328
16.30833,315
16.31667,303
16.32500,292
16.33333,281
16.34167,271
16.35000,262
16.35833,253
16.36667,245
16.37500,238
16.38333,231
16.39167,225
16.40000,218
16.40833,212
16.41667,207
16.42500,202
16.43333,198
16.44167,193
16.45000,189
16.45833,185
16.46667,181
16.47500,178
16.48333,174
16.49167,171
16.50000,168
16.50833,165
16.51667,162
16.52500,160
16.53333,158
16.54167,155
16.55000,153
16.55833,151
16.56667,149
16.57500,147
16.58333,145
16.59167,143
16.60000,141
16.60833,139
16.61667,137
16.62500,135
16.63333,133
16.64167,132
16.65000,130
16.65833,129
16.66667,128
16.67500,126
16.68333,125
16.69167,124
16.70000,122
16.70833,120
16.71667,119
16.72500,117
16.73333,116
16.74167,115
16.75000,114
16.75833,113
16.76667,112
16.77500,111
16.78333,109
16.79167,108
16.80000,108
16.80833,107
16.81667,106
16.82500,104
16.83333,103
16.84167,102
16.85000,101
16.85833,100
16.86667,99
16.87500,98
16.88333,97
16.89167,96
16.90000,95
16.90833,94
16.91667,93
16.92500,92
16.93333,91
16.94167,90
16.95000,89
16.95833,89
16.96667,88
16.97500,87
16.98333,86
16.99167,85
17.00000,84
17.00833,83
17.01667,83
17.02500,82
17.03333,81
17.04167,80
17.05000,79
17.05833,78
17.06667,77
17.07500,76
17.08333,75
17.09167,74
17.10000,73
17.10833,72
17.11667,71
17.12500,70
17.13333,69
17.14167,69
17.15000,68
17.15833,68
17.16667,68
17.17500,67
17.18333,67
17.19167,66
17.20000,65
17.20833,65
17.21667,64
17.22500,63
17.23333,63
17.24167,62
17.25000,62
17.25833,61
17.26667,60
17.27500,60
17.28333,59
17.29167,59
17.30000,58
17.30833,58
17.31667,57
17.32500,57
17.33333,56
17.34167,56
17.35000,55
17.35833,55
17.36667,55
17.37500,55
17.38333,54
17.39167,53
17.40000,53
17.40833,53
17.41667,52
17.42500,52
17.43333,51
17.44167,50
17.45000,50
17.45833,50
17.46667,49
17.47500,49
17.48333,49
17.49167,48
17.50000,48
17.50833,48
17.51667,48
17.52500,47
17.53333,47
17.54167,46
17.55000,46
17.55833,46
17.56667,46
17.57500,46
17.58333,45
17.59167,44
17.60000,44
17.60833,44
17.61667,44
17.62500,44
17.63333,44
17.64167,43
17.65000,43
17.65833,42
17.66667,42
17.67500,42
17.68333,41
17.69167,41
17.70000,40
17.70833,40
17.71667,40
17.72500,40
17.73333,40
17.74167,40
17.75000,40
17.75833,40
17.76667,40
17.77500,39
17.78333,39
17.79167,38
17.80000,38
17.80833,37
17.81667,37
17.82500,37
17.83333,37
17.84167,36
17.85000,36
17.85833,36
17.86667,36
17.87500,37
17.88333,37
17.89167,37
17.90000,37
17.90833,37
17.91667,36
17.92500,36
17.93333,36
17.94167,36
17.95000,36
17.95833,36
17.96667,35
17.97500,35
17.98333,34
17.99167,34
18.00000,33
18.00833,33
18.01667,32
18.02500,32
18.03333,32
18.04167,32
18.05000,32
18.05833,32
18.06667,31
18.07500,31
18.08333,31
18.09167,31
18.10000,31
18.10833,31
18.11667,31
18.12500,30
18.13333,30
18.14167,30
18.15000,30
18.15833,30
18.16667,30
18.17500,29
18.18333,29
18.19167,29
18.20000,29
18.20833,28
18.21667,27
18.22500,27
18.23333,27
18.24167,27
18.25000,26
18.25833,26
18.26667,26
18.27500,26
18.28333,26
18.29167,26
18.30000,26
18.30833,25
18.31667,25
18.32500,24
18.33333,25
18.34167,25
18.35000,24
18.35833,24
18.36667,24
18.37500,24
18.38333,24
18.39167,24
18.40000,24
18.40833,23
18.41667,23
18.42500,23
18.43333,23
18.44167,23
18.45000,22
18.45833,22
18.46667,22
18.47500,22
18.48333,22
18.49167,21
18.50000,21
18.50833,21
18.51667,21
18.52500,21
18.53333,21
18.54167,20
18.55000,20
18.55833,20
18.56667,20
18.57500,20
18.58333,20
18.59167,20
18.60000,20
18.60833,20
18.61667,20
18.62500,20
18.63333,20
18.64167,19
18.65000,19
18.65833,19
18.66667,19
18.67500,19
18.68333,20
18.69167,20
18.70000,21
18.70833,21
18.71667,21
18.72500,21
18.73333,21
18.74167,21
18.75000,21
18.75833,22
18.76667,22
18.77500,22
18.78333,23
18.79167,23
18.80000,23
18.80833,24
18.81667,24
18.82500,24
18.83333,24
18.84167,24
18.85000,25
18.85833,25
18.86667,25
18.87500,25
18.88333,26
18.89167,26
18.90000,26
18.90833,26
18.91667,26
18.92500,26
18.93333,26
18.94167,26
18.95000,26
18.95833,26
18.96667,26
18.97500,25
18.98333,25
18.99167,25
19.00000,24
19.00833,24
19.01667,23
19.02500,23
19.03333,23
19.04167,23
19.05000,22
19.05833,22
19.06667,21
19.07500,21
19.08333,21
19.09167,20
19.10000,19
19.10833,19
19.11667,18
19.12500,17
19.13333,17
19.14167,17
19.15000,17
19.15833,16
19.16667,16
19.17500,15
19.18333,15
19.19167,14
19.20000,14
19.20833,13
19.21667,13
19.22500,12
19.23333,12
19.24167,12
19.25000,12
19.25833,12
19.26667,11
19.27500,11
19.28333,11
19.29167,10
19.30000,10
19.30833,10
19.31667,10
19.32500,9
19.33333,9
19.34167,9
19.35000,9
19.35833,8
19.36667,8
19.37500,8
19.38333,8
19.39167,7
19.40000,8
19.40833,8
19.41667,7
19.42500,7
19.43333,7
19.44167,7
19.45000,7
19.45833,6
19.46667,6
19.47500,6
19.48333,5
19.49167,5
19.50000,5
19.50833,5
19.51667,6
19.52500,5
19.53333,5
19.54167,5
19.55000,5
19.55833,5
19.56667,5
19.57500,5
19.58333,5
19.59167,4
19.60000,4
19.60833,4
19.61667,4
19.62500,4
19.63333,4
19.64167,4
19.65000,4
19.65833,4
19.66667,3
19.67500,3
19.68333,4
19.69167,4
19.70000,3
19.70833,3
19.71667,3
19.72500,2
19.73333,2
19.74167,2
19.75000,3
19.75833,3
19.76667,3
19.77500,3
19.78333,3
19.79167,3
19.80000,3
19.80833,3
19.81667,3
19.82500,3
19.83333,3
19.84167,3
19.85000,2
19.85833,2
19.86667,2
19.87500,2
19.88333,2
19.89167,1
19.90000,1
19.90833,1
19.91667,1
19.92500,1
19.93333,1
19.94167,2
19.95000,2
19.95833,2
19.96667,1
19.97500,1
19.98333,1
19.99167,1
20.00000,1
20.00833,1
20.01667,1
20.02500,1
20.03333,0
20.04167,0
20.05000,0
20.05833,0
20.06667,-0
20.07500,-0
20.08333,-0
20.09167,-0
20.10000,-0
20.10833,-0
20.11667,-1
20.12500,-1
20.13333,-0
20.14167,-0
20.15000,-0
20.15833,-0
20.16667,-0
20.17500,0
20.18333,-0
20.19167,0
20.20000,-0
20.20833,-0
20.21667,-1
20.22500,-1
20.23333,-1
20.24167,-1
20.25000,-1
20.25833,-1
20.26667,-1
20.27500,-1
20.28333,-1
20.29167,-1
20.30000,-1
20.30833,-1
20.31667,-1
20.32500,-1
20.33333,-1
20.34167,-1
20.35000,-1
20.35833,-2
20.36667,-2
20.37500,-2
20.38333,-3
20.39167,-3
20.40000,-3
20.40833,-3
20.41667,-3
20.42500,-3
20.43333,-3
20.44167,-3
20.45000,-3
20.45833,-3
20.46667,-3
20.47500,-2
20.48333,-2
20.49167,-2
20.50000,-3
20.50833,-3
20.51667,-2
20.52500,-2
20.53333,-2
20.54167,-2
20.55000,-2
20.55833,-2
20.56667,-2
20.57500,-3
20.58333,-3
20.59167,-3
20.60000,-2
20.60833,-2
20.61667,-2
20.62500,-3
20.63333,-3
20.64167,-3
20.65000,-3
20.65833,-3
20.66667,-3
20.67500,-3
20.68333,-3
20.69167,-3
20.70000,-3
20.70833,-3
20.71667,-3
20.72500,-3
20.73333,-3
20.74167,-3
20.75000,-2
20.75833,-2
20.76667,-2
20.77500,-3
20.78333,-3
20.79167,-3
20.80000,-3
20.80833,-3
20.81667,-3
20.82500,-3
20.83333,-3
20.84167,-3
20.85000,-4
20.85833,-4
20.86667,-4
20.87500,-3
20.88333,-3
20.89167,-3
20.90000,-3
20.90833,-3
20.91667,-3
20.92500,-3
20.93333,-3
20.94167,-3
20.95000,-3
20.95833,-3
20.96667,-3
20.97500,-3
20.98333,-4
20.99167,-4
21.00000,-4
21.00833,-4
21.01667,-4
21.02500,-4
21.03333,-4
21.04167,-5
21.05000,-5
21.05833,-5
21.06667,-5
21.07500,-4
21.08333,-4
21.09167,-4
21.10000,-4
21.10833,-4
21.11667,-4
21.12500,-4
21.13333,-4
21.14167,-4
21.15000,-4
21.15833,-4
21.16667,-5
21.17500,-5
21.18333,-5
21.19167,-5
21.20000,-5
21.20833,-4
21.21667,-4
21.22500,-4
21.23333,-4
21.24167,-4
21.25000,-4
21.25833,-4
21.26667,-4
21.27500,-3
21.28333,-3
21.29167,-3
21.30000,-3
21.30833,-2
21.31667,-2
21.32500,-1
21.33333,-0
21.34167,0
21.35000,1
21.35833,2
21.36667,3
21.37500,4
21.38333,4
21.39167,5
21.40000,6
21.40833,7
21.41667,9
21.42500,11
21.43333,13
21.44167,16
21.45000,19
21.45833,22
21.46667,26
21.47500,30
21.48333,34
21.49167,39
21.50000,45
21.50833,51
21.51667,59
21.52500,67
21.53333,76
21.54167,87
21.55000,98
21.55833,112
21.56667,127
21.57500,144
21.58333,164
21.59167,186
21.60000,210
21.60833,237
21.61667,267
21.62500,302
21.63333,339
21.64167,382
21.65000,429
21.65833,481
21.66667,539
21.67500,602
21.68333,672
21.69167,750
21.70000,835
21.70833,928
21.71667,1030
21.72500,1141
21.73333,1261
21.74167,1391
21.75000,1531
21.75833,1683
21.76667,1845
21.77500,2018
21.78333,2203
21.79167,2398
21.80000,2606
21.80833,2825
21.81667,3055
21.82500,3295
21.83333,3547
21.84167,3808
21.85000,4079
21.85833,4358
21.86667,4644
21.87500,4937
21.88333,5235
21.89167,5538
21.90000,5843
21.90833,6149
21.91667,6455
21.92500,6760
21.93333,7061
21.94167,7357
21.95000,7646
21.95833,7927
21.96667,8197
21.97500,8456
21.98333,8701
21.99167,8931
22.00000,9144
22.00833,9340
22.01667,9516
22.02500,9673
22.03333,9808
22.04167,9922
22.05000,10013
22.05833,10082
22.06667,10128
22.07500,10150
22.08333,10149
22.09167,10125
22.10000,10078
22.10833,10009
22.11667,9919
22.12500,9807
22.13333,9676
22.14167,9525
22.15000,9358
22.15833,9174
22.16667,8974
22.17500,8761
22.18333,8536
22.19167,8301
22.20000,8055
22.20833,7802
22.21667,7542
22.22500,7277
22.23333,7009
22.24167,6737
22.25000,6465
22.25833,6192
22.26667,5921
22.27500,5651
22.28333,5385
22.29167,5123
22.30000,4866
22.30833,4614
22.31667,4369
22.32500,4131
22.33333,3900
22.34167,3677
22.35000,3461
22.35833,3254
22.36667,3055
22.37500,2865
22.38333,2684
22.39167,2511
22.40000,2347
22.40833,2191
22.41667,2043
22.42500,1903
22.43333,1771
22.44167,1647
22.45000,1530
22.45833,1421
22.46667,1319
22.47500,1223
22.48333,1134
22.49167,1051
22.50000,973
22.50833,901
22.51667,834
22.52500,772
22.53333,714
22.54167,661
22.55000,612
22.55833,567
22.56667,525
22.57500,487
22.58333,451
22.59167,419
22.60000,388
22.60833,361
22.61667,335
22.62500,312
22.63333,290
22.64167,270
22.65000,252
22.65833,236
22.66667,221
22.67500,207
22.68333,194
22.69167,182
22.70000,171
22.70833,162
22.71667,153
22.72500,144
22.73333,137
22.74167,130
22.75000,123
22.75833,117
22.76667,112
22.77500,107
22.78333,102
22.79167,97
22.80000,93
22.80833,90
22.81667,87
22.82500,83
22.83333,80
22.84167,77
22.85000,75
22.85833,72
22.86667,70
22.87500,68
22.88333,66
22.89167,65
22.90000,63
22.90833,61
22.91667,60
22.92500,58
22.93333,56
22.94167,55
22.95000,53
22.95833,52
22.96667,51
22.97500,50
22.98333,49
22.99167,48
23.00000,46
23.00833,45
23.01667,44
23.02500,44
23.03333,43
23.04167,42
23.05000,41
23.05833,41
23.06667,40
23.07500,39
23.08333,38
23.09167,37
23.10000,37
23.10833,36
23.11667,36
23.12500,36
23.13333,36
23.14167,35
23.15000,35
23.15833,35
23.16667,34
23.17500,34
23.18333,33
23.19167,33
23.20000,33
23.20833,32
23.21667,32
23.22500,31
23.23333,30
23.24167,29
23.25000,29
23.25833,28
23.26667,28
23.27500,28
23.28333,28
23.29167,27
23.30000,27
23.30833,26
23.31667,26
23.32500,25
23.33333,25
23.34167,25
23.35000,24
23.35833,24
23.36667,24
23.37500,23
23.38333,22
23.39167,22
23.40000,22
23.40833,22
23.41667,22
23.42500,22
23.43333,21
23.44167,21
23.45000,21
23.45833,21
23.46667,20
23.47500,20
23.48333,20
23.49167,20
23.50000,19
23.50833,19
23.51667,18
23.52500,18
23.53333,18
23.54167,17
23.55000,17
23.55833,17
23.56667,17
23.57500,17
23.58333,17
23.59167,17
23.60000,16
23.60833,16
23.61667,17
23.62500,17
23.63333,16
23.64167,16
23.65000,16
23.65833,16
23.66667,15
23.67500,15
23.68333,15
23.69167,14
23.70000,14
23.70833,14
23.71667,14
23.72500,14
23.73333,13
23.74167,13
23.75000,13
23.75833,13
23.76667,13
23.77500,13
23.78333,13
23.79167,13
23.80000,12
23.80833,12
23.81667,12
23.82500,12
23.83333,12
23.84167,12
23.85000,12
23.85833,12
23.86667,12
23.87500,12
23.88333,11
23.89167,11
23.90000,11
23.90833,11
23.91667,10
23.92500,10
23.93333,10
23.94167,10
23.95000,10
23.95833,10
23.96667,10
23.97500,10
23.98333,10
23.99167,10
24.00000,9
24.00833,9
24.01667,9
24.02500,9
24.03333,9
24.04167,9
24.05000,9
24.05833,9
24.06667,9
24.07500,9
24.08333,9
24.09167,9
24.10000,9
24.10833,9
24.11667,9
24.12500,8
24.13333,8
24.14167,8
24.15000,7
24.15833,7
24.16667,7
24.17500,7
24.18333,8
24.19167,8
24.20000,8
24.20833,8
24.21667,8
24.22500,8
24.23333,8
24.24167,8
24.25000,8
24.25833,9
24.26667,9
24.27500,10
24.28333,10
24.29167,11
24.30000,12
24.30833,12
24.31667,13
24.32500,14
24.33333,15
24.34167,16
24.35000,17
24.35833,19
24.36667,20
24.37500,22
24.38333,24
24.39167,27
24.40000,29
24.40833,32
24.41667,36
24.42500,39
24.43333,43
24.44167,47
24.45000,52
24.45833,57
24.46667,63
24.47500,69
24.48333,77
24.49167,86
24.50000,95
24.50833,106
24.51667,117
24.52500,130
24.53333,144
24.54167,159
24.55000,176
24.55833,195
24.56667,215
24.57500,237
24.58333,261
24.59167,288
24.60000,317
24.60833,348
24.61667,382
24.62500,419
24.63333,458
24.64167,501
24.65000,546
24.65833,595
24.66667,647
24.67500,703
24.68333,762
24.69167,824
24.70000,890
24.70833,959
24.71667,1033
24.72500,1110
24.73333,1191
24.74167,1274
24.75000,1362
24.75833,1452
24.76667,1545
24.77500,1642
24.78333,1741
24.79167,1842
24.80000,1945
24.80833,2050
24.81667,2156
24.82500,2263
24.83333,2371
24.84167,2479
24.85000,2587
24.85833,2694
24.86667,2799
24.87500,2903
24.88333,3004
24.89167,3103
24.90000,3198
24.90833,3289
24.91667,3376
24.92500,3458
24.93333,3535
24.94167,3607
24.95000,3673
24.95833,3733
24.96667,3786
24.97500,3832
24.98333,3871
24.99167,3903
25.00000,3927
25.00833,3944
25.01667,3953
25.02500,3955
25.03333,3949
25.04167,3936
25.05000,3915
25.05833,3887
25.06667,3852
25.07500,3811
25.08333,3762
25.09167,3708
25.10000,3647
25.10833,3581
25.11667,3510
25.12500,3435
25.13333,3355
25.14167,3271
25.15000,3184
25.15833,3094
25.16667,3001
25.17500,2907
25.18333,2810
25.19167,2713
25.20000,2614
25.20833,2515
25.21667,2416
25.22500,2318
25.23333,2220
25.24167,2123
25.25000,2027
25.25833,1932
25.26667,1839
25.27500,1748
25.28333,1659
25.29167,1572
25.30000,1488
25.30833,1407
25.31667,1328
25.32500,1252
25.33333,1179
25.34167,1109
25.35000,1042
25.35833,978
25.36667,917
25.37500,858
25.38333,802
25.39167,750
25.40000,700
25.40833,653
25.41667,609
25.42500,566
25.43333,526
25.44167,489
25.45000,455
25.45833,422
25.46667,392
25.47500,364
25.48333,338
25.49167,313
25.50000,290
25.50833,268
25.51667,248
25.52500,230
25.53333,213
25.54167,198
25.55000,183
25.55833,170
25.56667,157
25.57500,146
25.58333,135
25.59167,126
25.60000,117
25.60833,109
25.61667,101
25.62500,94
25.63333,87
25.64167,81
25.65000,76
25.65833,72
25.66667,67
25.67500,63
25.68333,59
25.69167,56
25.70000,52
25.70833,49
25.71667,47
25.72500,44
25.73333,41
25.74167,39
25.75000,37
25.75833,35
25.76667,34
25.77500,32
25.78333,31
25.79167,30
25.80000,29
25.80833,27
25.81667,26
25.82500,25
25.83333,24
25.84167,23
25.85000,22
25.85833,21
25.86667,21
25.87500,20
25.88333,19
25.89167,19
25.90000,18
25.90833,17
25.91667,17
25.92500,16
25.93333,16
25.94167,16
25.95000,16
25.95833,15
25.96667,15
25.97500,15
25.98333,14
25.99167,14
26.00000,14
26.00833,13
26.01667,13
26.02500,13
26.03333,13
26.04167,12
26.05000,12
26.05833,12
26.06667,11
26.07500,11
26.08333,10
26.09167,10
26.10000,9
26.10833,9
26.11667,9
26.12500,9
26.13333,9
26.14167,9
26.15000,8
26.15833,8
26.16667,8
26.17500,8
26.18333,7
26.19167,7
26.20000,7
26.20833,7
26.21667,7
26.22500,7
26.23333,6
26.24167,6
26.25000,6
26.25833,6
26.26667,7
26.27500,7
26.28333,7
26.29167,6
26.30000,5
26.30833,5
26.31667,5
26.32500,4
26.33333,4
26.34167,4
26.35000,4
26.35833,4
26.36667,4
26.37500,5
26.38333,5
26.39167,5
26.40000,4
26.40833,4
26.41667,4
26.42500,3
26.43333,3
26.44167,3
26.45000,3
26.45833,2
26.46667,2
26.47500,3
26.48333,3
26.49167,3
26.50000,3
26.50833,3
26.51667,3
26.52500,3
26.53333,2
26.54167,2
26.55000,2
26.55833,2
26.56667,2
26.57500,2
26.58333,3
26.59167,3
26.60000,3
26.60833,3
26.61667,3
26.62500,3
26.63333,3
26.64167,3
26.65000,3
26.65833,3
26.66667,3
26.67500,3
26.68333,2
26.69167,2
26.70000,2
26.70833,2
26.71667,2
26.72500,2
26.73333,1
26.74167,1
26.75000,1
26.75833,1
26.76667,1
26.77500,1
26.78333,1
26.79167,1
26.80000,1
26.80833,1
26.81667,1
26.82500,1
26.83333,1
26.84167,1
26.85000,1
26.85833,1
26.86667,0
26.87500,0
26.88333,-0
26.89167,-0
26.90000,-0
26.90833,-0
26.91667,-0
26.92500,0
26.93333,0
26.94167,0
26.95000,0
26.95833,0
26.96667,0
26.97500,0
26.98333,-0
26.99167,-0
27.00000,-1
27.00833,-1
27.01667,-1
27.02500,-1
27.03333,-1
27.04167,-2
27.05000,-1
27.05833,-1
27.06667,-1
27.07500,-1
27.08333,-1
27.09167,-1
27.10000,-2
27.10833,-2
27.11667,-2
27.12500,-2
27.13333,-2
27.14167,-2
27.15000,-2
27.15833,-2
27.16667,-2
27.17500,-3
27.18333,-3
27.19167,-3
27.20000,-2
27.20833,-2
27.21667,-3
27.22500,-3
27.23333,-3
27.24167,-3
27.25000,-3
27.25833,-3
27.26667,-3
27.27500,-3
27.28333,-3
27.29167,-3
27.30000,-3
27.30833,-3
27.31667,-3
27.32500,-3
27.33333,-3
27.34167,-3
27.35000,-3
27.35833,-3
27.36667,-3
27.37500,-3
27.38333,-3
27.39167,-4
27.40000,-4
27.40833,-4
27.41667,-5
27.42500,-5
27.43333,-5
27.44167,-5
27.45000,-5
27.45833,-4
27.46667,-4
27.47500,-4
27.48333,-4
27.49167,-4
27.50000,-4
27.50833,-4
27.51667,-4
27.52500,-4
27.53333,-4
27.54167,-4
27.55000,-4
27.55833,-4
27.56667,-4
27.57500,-4
27.58333,-5
27.59167,-5
27.60000,-5
27.60833,-5
27.61667,-5
27.62500,-5
27.63333,-5
27.64167,-5
27.65000,-5
27.65833,-5
27.66667,-5
27.67500,-5
27.68333,-5
27.69167,-5
27.70000,-5
27.70833,-6
27.71667,-6
27.72500,-6
27.73333,-7
27.74167,-7
27.75000,-7
27.75833,-7
27.76667,-7
27.77500,-7
27.78333,-7
27.79167,-7
27.80000,-7
27.80833,-8
27.81667,-8
27.82500,-9
27.83333,-9
27.84167,-9
27.85000,-9
27.85833,-10
27.86667,-10
27.87500,-10
27.88333,-11
27.89167,-11
27.90000,-12
27.90833,-12
27.91667,-13
27.92500,-14
27.93333,-14
27.94167,-15
27.95000,-17
27.95833,-18
27.96667,-19
27.97500,-20
27.98333,-20
27.99167,-21
28.00000,-22
28.00833,-23
28.01667,-24
28.02500,-26
28.03333,-27
28.04167,-29
28.05000,-31
28.05833,-33
28.06667,-35
28.07500,-36
28.08333,-38
28.09167,-40
28.10000,-42
28.10833,-44
28.11667,-47
28.12500,-49
28.13333,-52
28.14167,-54
28.15000,-57
28.15833,-60
28.16667,-62
28.17500,-65
28.18333,-69
28.19167,-72
28.20000,-75
28.20833,-77
28.21667,-81
28.22500,-84
28.23333,-88
28.24167,-91
28.25000,-95
28.25833,-98
28.26667,-101
28.27500,-105
28.28333,-108
28.29167,-112
28.30000,-115
28.30833,-119
28.31667,-122
28.32500,-126
28.33333,-129
28.34167,-132
28.35000,-135
28.35833,-138
28.36667,-141
28.37500,-144
28.38333,-147
28.39167,-150
28.40000,-153
28.40833,-155
28.41667,-157
28.42500,-160
28.43333,-162
28.44167,-164
28.45000,-166
28.45833,-167
28.46667,-169
28.47500,-170
28.48333,-171
28.49167,-172
28.50000,-173
28.50833,-173
28.51667,-174
28.52500,-174
28.53333,-175
28.54167,-175
28.55000,-174
28.55833,-174
28.56667,-173
28.57500,-172
28.58333,-171
28.59167,-169
28.60000,-168
28.60833,-166
28.61667,-164
28.62500,-163
28.63333,-161
28.64167,-159
28.65000,-157
28.65833,-154
28.66667,-151
28.67500,-149
28.68333,-146
28.69167,-143
28.70000,-141
28.70833,-138
28.71667,-135
28.72500,-132
28.73333,-129
28.74167,-126
28.75000,-123
28.75833,-120
28.76667,-117
28.77500,-114
28.78333,-112
28.79167,-109
28.80000,-106
28.80833,-103
28.81667,-100
28.82500,-96
28.83333,-94
28.84167,-91
28.85000,-88
28.85833,-85
28.86667,-83
28.87500,-80
28.88333,-77
28.89167,-75
28.90000,-73
28.90833,-71
28.91667,-69
28.92500,-66
28.93333,-64
28.94167,-62
28.95000,-60
28.95833,-58
28.96667,-57
28.97500,-55
28.98333,-53
28.99167,-52
29.00000,-50
29.00833,-49
29.01667,-47
29.02500,-46
29.03333,-44
29.04167,-43
29.05000,-42
29.05833,-41
29.06667,-39
29.07500,-38
29.08333,-37
29.09167,-36
29.10000,-36
29.10833,-35
29.11667,-34
29.12500,-33
29.13333,-32
29.14167,-31
29.15000,-31
29.15833,-30
29.16667,-29
29.17500,-29
29.18333,-28
29.19167,-28
29.20000,-27
29.20833,-27
29.21667,-26
29.22500,-26
29.23333,-25
29.24167,-25
29.25000,-24
29.25833,-24
29.26667,-23
29.27500,-23
29.28333,-23
29.29167,-23
29.30000,-23
29.30833,-23
29.31667,-23
29.32500,-22
29.33333,-22
29.34167,-22
29.35000,-21
29.35833,-21
29.36667,-21
29.37500,-21
29.38333,-21
29.39167,-21
29.40000,-21
29.40833,-21
29.41667,-21
29.42500,-21
29.43333,-21
29.44167,-21
29.45000,-20
29.45833,-20
29.46667,-20
29.47500,-20
29.48333,-20
29.49167,-20
29.50000,-20
29.50833,-20
29.51667,-20
29.52500,-20
29.53333,-20
29.54167,-21
29.55000,-21
29.55833,-21
29.56667,-21
29.57500,-21
29.58333,-21
29.59167,-21
29.60000,-21
29.60833,-21
29.61667,-21
29.62500,-22
29.63333,-22
29.64167,-22
29.65000,-23
29.65833,-24
29.66667,-24
29.67500,-24
29.68333,-25
29.69167,-25
29.70000,-25
29.70833,-26
29.71667,-27
29.72500,-27
29.73333,-28
29.74167,-28
29.75000,-29
29.75833,-29
29.76667,-30
29.77500,-30
29.78333,-31
29.79167,-31
29.80000,-33
29.80833,-33
29.81667,-34
29.82500,-35
29.83333,-36
29.84167,-36
29.85000,-37
29.85833,-38
29.86667,-39
29.87500,-40
29.88333,-41
29.89167,-42
29.90000,-43
29.90833,-43
29.91667,-44
29.92500,-44
29.93333,-45
29.94167,-46
29.95000,-47
29.95833,-48
29.96667,-50
29.97500,-51
29.98333,-53
29.99167,-54
30.00000,-55
30.00833,-56
30.01667,-57
30.02500,-58
30.03333,-59
30.04167,-61
30.05000,-62
30.05833,-63
30.06667,-64
30.07500,-66
30.08333,-67
30.09167,-68
30.10000,-69
30.10833,-70
30.11667,-71
30.12500,-72
30.13333,-72
30.14167,-73
30.15000,-74
30.15833,-75
30.16667,-75
30.17500,-76
30.18333,-76
30.19167,-76
30.20000,-77
30.20833,-77
30.21667,-78
30.22500,-79
30.23333,-79
30.24167,-79
30.25000,-79
30.25833,-80
30.26667,-80
30.27500,-80
30.28333,-80
30.29167,-80
30.30000,-80
30.30833,-80
30.31667,-80
30.32500,-79
30.33333,-79
30.34167,-78
30.35000,-78
30.35833,-77
30.36667,-77
30.37500,-76
30.38333,-76
30.39167,-75
30.40000,-74
30.40833,-73
30.41667,-73
30.42500,-72
30.43333,-70
30.44167,-69
30.45000,-69
30.45833,-68
30.46667,-68
30.47500,-67
30.48333,-66
30.49167,-64
30.50000,-63
30.50833,-62
30.51667,-61
30.52500,-60
30.53333,-59
30.54167,-58
30.55000,-57
30.55833,-55
30.56667,-54
30.57500,-53
30.58333,-52
30.59167,-51
30.60000,-50
30.60833,-49
30.61667,-48
30.62500,-47
30.63333,-46
30.64167,-45
30.65000,-44
30.65833,-43
30.66667,-43
30.67500,-42
30.68333,-41
30.69167,-40
30.70000,-39
30.70833,-39
30.71667,-38
30.72500,-37
30.73333,-36
30.74167,-35
30.75000,-34
30.75833,-33
30.76667,-32
30.77500,-32
30.78333,-31
30.79167,-31
30.80000,-31
30.80833,-30
30.81667,-30
30.82500,-29
30.83333,-29
30.84167,-29
30.85000,-28
30.85833,-28
30.86667,-27
30.87500,-27
30.88333,-26
30.89167,-26
30.90000,-26
30.90833,-26
30.91667,-25
30.92500,-24
30.93333,-24
30.94167,-24
30.95000,-24
30.95833,-24
30.96667,-24
30.97500,-24
30.98333,-24
30.99167,-23
31.00000,-23
31.00833,-23
31.01667,-22
31.02500,-22
31.03333,-21
31.04167,-21
31.05000,-21
31.05833,-21
31.06667,-21
31.07500,-21
31.08333,-21
31.09167,-21
31.10000,-20
31.10833,-20
31.11667,-20
31.12500,-20
31.13333,-20
31.14167,-20
31.15000,-20
31.15833,-20
31.16667,-20
31.17500,-20
31.18333,-20
31.19167,-20
31.20000,-20
31.20833,-20
31.21667,-20
31.22500,-20
31.23333,-20
31.24167,-20
31.25000,-20
31.25833,-20
31.26667,-20
31.27500,-19
31.28333,-19
31.29167,-18
31.30000,-18
31.30833,-18
31.31667,-19
31.32500,-19
31.33333,-19
31.34167,-18
31.35000,-18
31.35833,-18
31.36667,-18
31.37500,-18
31.38333,-18
31.39167,-18
31.40000,-18
31.40833,-18
31.41667,-18
31.42500,-17
31.43333,-17
31.44167,-17
31.45000,-17
31.45833,-16
31.46667,-16
31.47500,-16
31.48333,-16
31.49167,-16
31.50000,-17
31.50833,-17
31.51667,-17
31.52500,-18
31.53333,-17
31.54167,-17
31.55000,-17
31.55833,-17
31.56667,-17
31.57500,-17
31.58333,-17
31.59167,-17
31.60000,-17
31.60833,-17
31.61667,-17
31.62500,-17
31.63333,-16
31.64167,-16
31.65000,-17
31.65833,-17
31.66667,-17
31.67500,-17
31.68333,-16
31.69167,-16
31.70000,-16
31.70833,-16
31.71667,-16
31.72500,-16
31.73333,-16
31.74167,-16
31.75000,-15
31.75833,-15
31.76667,-15
31.77500,-16
31.78333,-16
31.79167,-16
31.80000,-16
31.80833,-16
31.81667,-16
31.82500,-16
31.83333,-16
31.84167,-16
31.85000,-16
31.85833,-15
31.86667,-15
31.87500,-15
31.88333,-15
31.89167,-15
31.90000,-15
31.90833,-15
31.91667,-15
31.92500,-15
31.93333,-16
31.94167,-16
31.95000,-16
31.95833,-15
31.96667,-15
31.97500,-15
31.98333,-15
31.99167,-16
32.00000,-16
32.00833,-16
32.01667,-16
32.02500,-16
32.03333,-15
32.04167,-15
32.05000,-15
32.05833,-15
32.06667,-15
32.07500,-15
32.08333,-16
32.09167,-16
32.10000,-16
32.10833,-16
32.11667,-16
32.12500,-16
32.13333,-15
32.14167,-15
32.15000,-15
32.15833,-15
32.16667,-15
32.17500,-15
32.18333,-15
32.19167,-15
32.20000,-15
32.20833,-15
32.21667,-15
32.22500,-15
32.23333,-15
32.24167,-15
32.25000,-15
32.25833,-15
32.26667,-15
32.27500,-15
32.28333,-15
32.29167,-15
32.30000,-16
32.30833,-16
32.31667,-15
32.32500,-15
32.33333,-16
32.34167,-16
32.35000,-16
32.35833,-16
32.36667,-16
32.37500,-16
32.38333,-16
32.39167,-16
32.40000,-16
32.40833,-15
32.41667,-16
32.42500,-16
32.43333,-16
32.44167,-16
32.45000,-16
32.45833,-16
32.46667,-16
32.47500,-16
32.48333,-16
32.49167,-16
32.50000,-16
32.50833,-15
32.51667,-15
32.52500,-15
32.53333,-15
32.54167,-15
32.55000,-15
32.55833,-15
32.56667,-15
32.57500,-15
32.58333,-15
32.59167,-15
32.60000,-15
32.60833,-15
32.61667,-15
32.62500,-16
32.63333,-16
32.64167,-16
32.65000,-16
32.65833,-16
32.66667,-16
32.67500,-16
32.68333,-16
32.69167,-16
32.70000,-16
32.70833,-16
32.71667,-16
32.72500,-16
32.73333,-16
32.74167,-16
32.75000,-16
32.75833,-16
32.76667,-16
32.77500,-16
32.78333,-16
32.79167,-16
32.80000,-16
32.80833,-16
32.81667,-17
32.82500,-17
32.83333,-17
32.84167,-16
32.85000,-16
32.85833,-16
32.86667,-16
32.87500,-16
32.88333,-16
32.89167,-16
32.90000,-16
32.90833,-16
32.91667,-16
32.92500,-16
32.93333,-16
32.94167,-16
32.95000,-16
32.95833,-16
32.96667,-16
32.97500,-16
32.98333,-15
32.99167,-15
33.00000,-15
33.00833,-15
33.01667,-15
33.02500,-15
33.03333,-15
33.04167,-14
33.05000,-14
33.05833,-14
33.06667,-14
33.07500,-14
33.08333,-14
33.09167,-15
33.10000,-15
33.10833,-15
33.11667,-15
33.12500,-15
33.13333,-15
33.14167,-15
33.15000,-15
33.15833,-15
33.16667,-16
33.17500,-16
33.18333,-16
33.19167,-16
33.20000,-16
33.20833,-16
33.21667,-16
33.22500,-16
33.23333,-16
33.24167,-16
33.25000,-16
33.25833,-15
33.26667,-15
33.27500,-15
33.28333,-15
33.29167,-15
33.30000,-15
33.30833,-15
33.31667,-15
33.32500,-15
33.33333,-15
33.34167,-15
33.35000,-15
33.35833,-15
33.36667,-15
33.37500,-15
33.38333,-15
33.39167,-15
33.40000,-15
33.40833,-16
33.41667,-16
33.42500,-16
33.43333,-16
33.44167,-16
33.45000,-16
33.45833,-15
33.46667,-15
33.47500,-15
33.48333,-15
33.49167,-15
33.50000,-15
33.50833,-15
33.51667,-15
33.52500,-15
33.53333,-15
33.54167,-15
33.55000,-15
33.55833,-15
33.56667,-15
33.57500,-15
33.58333,-15
33.59167,-15
33.60000,-15
33.60833,-14
33.61667,-15
33.62500,-15
33.63333,-15
33.64167,-15
33.65000,-16
33.65833,-16
33.66667,-16
33.67500,-16
33.68333,-16
33.69167,-15
33.70000,-15
33.70833,-15
33.71667,-14
33.72500,-14
33.73333,-14
33.74167,-14
33.75000,-14
33.75833,-14
33.76667,-15
33.77500,-15
33.78333,-15
33.79167,-15
33.80000,-15
33.80833,-15
33.81667,-15
33.82500,-15
33.83333,-15
33.84167,-15
33.85000,-15
33.85833,-15
33.86667,-15
33.87500,-15
33.88333,-15
33.89167,-15
33.90000,-15
33.90833,-15
33.91667,-15
33.92500,-15
33.93333,-16
33.94167,-16
33.95000,-16
33.95833,-16
33.96667,-16
33.97500,-15
33.98333,-15
33.99167,-15
34.00000,-15
34.00833,-15
34.01667,-15
34.02500,-15
34.03333,-15
34.04167,-15
34.05000,-15
34.05833,-15
34.06667,-15
34.07500,-15
34.08333,-15
34.09167,-15
34.10000,-15
34.10833,-14
34.11667,-14
34.12500,-14
34.13333,-14
34.14167,-14
34.15000,-15
34.15833,-15
34.16667,-15
34.17500,-15
34.18333,-16
34.19167,-16
34.20000,-16
34.20833,-16
34.21667,-16
34.22500,-16
34.23333,-16
34.24167,-16
34.25000,-16
34.25833,-16
34.26667,-15
34.27500,-15
34.28333,-15
34.29167,-15
34.30000,-15
34.30833,-16
34.31667,-15
34.32500,-15
34.33333,-15
34.34167,-15
34.35000,-14
34.35833,-14
34.36667,-15
34.37500,-15
34.38333,-15
34.39167,-15
34.40000,-15
34.40833,-15
34.41667,-15
34.42500,-15
34.43333,-15
34.44167,-15
34.45000,-15
34.45833,-15
34.46667,-15
34.47500,-15
34.48333,-15
34.49167,-15
34.50000,-15
34.50833,-15
34.51667,-15
34.52500,-15
34.53333,-15
34.54167,-15
34.55000,-15
34.55833,-15
34.56667,-15
34.57500,-16
34.58333,-16
34.59167,-15
34.60000,-15
34.60833,-15
34.61667,-16
34.62500,-16
34.63333,-16
34.64167,-16
34.65000,-16
34.65833,-15
34.66667,-15
34.67500,-15
34.68333,-16
34.69167,-16
34.70000,-15
34.70833,-15
34.71667,-15
34.72500,-15
34.73333,-15
34.74167,-15
34.75000,-15
34.75833,-15
34.76667,-15
34.77500,-15
34.78333,-16
34.79167,-16
34.80000,-16
34.80833,-16
34.81667,-16
34.82500,-16
34.83333,-16
34.84167,-16
34.85000,-16
34.85833,-16
34.86667,-16
34.87500,-16
34.88333,-16
34.89167,-16
34.90000,-16
34.90833,-16
34.91667,-17
34.92500,-17
34.93333,-17
34.94167,-17
34.95000,-16
34.95833,-16
34.96667,-15
34.97500,-15
34.98333,-15
34.99167,-16
35.00000,-16
35.00833,-16
35.01667,-16
35.02500,-16
35.03333,-16
35.04167,-17
35.05000,-16
35.05833,-17
35.06667,-16
35.07500,-16
35.08333,-16
35.09167,-16
35.10000,-15
35.10833,-15
35.11667,-15
35.12500,-15
35.13333,-15
35.14167,-16
35.15000,-16
35.15833,-16
35.16667,-16
35.17500,-16
35.18333,-16
35.19167,-16
35.20000,-16
35.20833,-16
35.21667,-16
35.22500,-16
35.23333,-16
35.24167,-16
35.25000,-16
35.25833,-16
35.26667,-16
35.27500,-16
35.28333,-16
35.29167,-16
35.30000,-16
35.30833,-16
35.31667,-16
35.32500,-16
35.33333,-16
35.34167,-16
35.35000,-16
35.35833,-15
35.36667,-15
35.37500,-15
35.38333,-15
35.39167,-15
35.40000,-15
35.40833,-16
35.41667,-16
35.42500,-16
35.43333,-16
35.44167,-16
35.45000,-16
35.45833,-16
35.46667,-16
35.47500,-16
35.48333,-17
35.49167,-17
35.50000,-16
35.50833,-16
35.51667,-16
35.52500,-16
35.53333,-16
35.54167,-17
35.55000,-17
35.55833,-17
35.56667,-17
35.57500,-17
35.58333,-17
35.59167,-16
35.60000,-16
35.60833,-16
35.61667,-17
35.62500,-17
35.63333,-17
35.64167,-17
35.65000,-16
35.65833,-16
35.66667,-16
35.67500,-16
35.68333,-16
35.69167,-16
35.70000,-16
35.70833,-16
35.71667,-16
35.72500,-16
35.73333,-16
35.74167,-16
35.75000,-16
35.75833,-16
35.76667,-16
35.77500,-16
35.78333,-16
35.79167,-16
35.80000,-16
35.80833,-16
35.81667,-16
35.82500,-16
35.83333,-16
35.84167,-16
35.85000,-16
35.85833,-16
35.86667,-16
35.87500,-17
35.88333,-17
35.89167,-17
35.90000,-17
35.90833,-18
35.91667,-18
35.92500,-18
35.93333,-18
35.94167,-19
35.95000,-19
35.95833,-18
35.96667,-18
35.97500,-18
35.98333,-18
35.99167,-17
36.00000,-17
36.00833,-17
36.01667,-17
36.02500,-17
36.03333,-17
36.04167,-17
36.05000,-17
36.05833,-17
36.06667,-17
36.07500,-16
36.08333,-16
36.09167,-16
36.10000,-16
36.10833,-16
36.11667,-16
36.12500,-16
36.13333,-16
36.14167,-16
36.15000,-16
36.15833,-16
36.16667,-16
36.17500,-17
36.18333,-17
36.19167,-17
36.20000,-17
36.20833,-18
36.21667,-18
36.22500,-18
36.23333,-17
36.24167,-17
36.25000,-17
36.25833,-18
36.26667,-18
36.27500,-18
36.28333,-18
36.29167,-18
36.30000,-18
36.30833,-18
36.31667,-18
36.32500,-18
36.33333,-19
36.34167,-19
36.35000,-18
36.35833,-18
36.36667,-18
36.37500,-18
36.38333,-18
36.39167,-18
36.40000,-18
36.40833,-18
36.41667,-18
36.42500,-18
36.43333,-18
36.44167,-18
36.45000,-18
36.45833,-18
36.46667,-18
36.47500,-18
36.48333,-18
36.49167,-19
36.50000,-19
36.50833,-19
36.51667,-19
36.52500,-19
36.53333,-19
36.54167,-19
36.55000,-19
36.55833,-19
36.56667,-19
36.57500,-19
36.58333,-19
36.59167,-19
36.60000,-19
36.60833,-18
36.61667,-18
36.62500,-18
36.63333,-18
36.64167,-18
36.65000,-19
36.65833,-19
36.66667,-19
36.67500,-19
36.68333,-19
36.69167,-19
36.70000,-19
36.70833,-18
36.71667,-18
36.72500,-18
36.73333,-18
36.74167,-18
36.75000,-18
36.75833,-18
36.76667,-18
36.77500,-18
36.78333,-18
36.79167,-19
36.80000,-19
36.80833,-19
36.81667,-19
36.82500,-19
36.83333,-19
36.84167,-18
36.85000,-18
36.85833,-18
36.86667,-18
36.87500,-18
36.88333,-18
36.89167,-18
36.90000,-19
36.90833,-19
36.91667,-19
36.92500,-20
36.93333,-20
36.94167,-19
36.95000,-19
36.95833,-19
36.96667,-19
36.97500,-19
36.98333,-19
36.99167,-19
37.00000,-18
37.00833,-18
37.01667,-18
37.02500,-18
37.03333,-18
37.04167,-18
37.05000,-19
37.05833,-19
37.06667,-19
37.07500,-19
37.08333,-18
37.09167,-18
37.10000,-18
37.10833,-18
37.11667,-19
37.12500,-19
37.13333,-19
37.14167,-18
37.15000,-18
37.15833,-18
37.16667,-18
37.17500,-18
37.18333,-18
37.19167,-18
37.20000,-18
37.20833,-18
37.21667,-19
37.22500,-19
37.23333,-18
37.24167,-18
37.25000,-18
37.25833,-18
37.26667,-18
37.27500,-18
37.28333,-18
37.29167,-18
37.30000,-18
37.30833,-18
37.31667,-18
37.32500,-18
37.33333,-19
37.34167,-19
37.35000,-19
37.35833,-18
37.36667,-18
37.37500,-18
37.38333,-18
37.39167,-18
37.40000,-19
37.40833,-19
37.41667,-19
37.42500,-19
37.43333,-19
37.44167,-19
37.45000,-19
37.45833,-19
37.46667,-19
37.47500,-19
37.48333,-20
37.49167,-19
37.50000,-19
37.50833,-19
37.51667,-20
37.52500,-20
37.53333,-20
37.54167,-20
37.55000,-20
37.55833,-19
37.56667,-19
37.57500,-19
37.58333,-18
37.59167,-18
37.60000,-18
37.60833,-18
37.61667,-18
37.62500,-19
37.63333,-19
37.64167,-19
37.65000,-19
37.65833,-19
37.66667,-19
37.67500,-19
37.68333,-19
37.69167,-19
37.70000,-19
37.70833,-18
37.71667,-18
37.72500,-19
37.73333,-19
37.74167,-19
37.75000,-19
37.75833,-19
37.76667,-19
37.77500,-19
37.78333,-20
37.79167,-19
37.80000,-19
37.80833,-19
37.81667,-19
37.82500,-19
37.83333,-19
37.84167,-19
37.85000,-18
37.85833,-18
37.86667,-18
37.87500,-18
37.88333,-19
37.89167,-19
37.90000,-19
37.90833,-19
37.91667,-20
37.92500,-20
37.93333,-20
37.94167,-19
37.95000,-19
37.95833,-19
37.96667,-19
37.97500,-19
37.98333,-20
37.99167,-20
38.00000,-20
38.00833,-20
38.01667,-19
38.02500,-19
38.03333,-19
38.04167,-19
38.05000,-19
38.05833,-19
38.06667,-20
38.07500,-20
38.08333,-20
38.09167,-20
38.10000,-19
38.10833,-19
38.11667,-19
38.12500,-20
38.13333,-20
38.14167,-20
38.15000,-20
38.15833,-20
38.16667,-20
38.17500,-20
38.18333,-20
38.19167,-20
38.20000,-19
38.20833,-20
38.21667,-19
38.22500,-19
38.23333,-19
38.24167,-20
38.25000,-20
38.25833,-20
38.26667,-19
38.27500,-19
38.28333,-20
38.29167,-20
38.30000,-20
38.30833,-20
38.31667,-20
38.32500,-20
38.33333,-20
38.34167,-19
38.35000,-19
38.35833,-19
38.36667,-19
38.37500,-19
38.38333,-19
38.39167,-18
38.40000,-18
38.40833,-18
38.41667,-19
38.42500,-19
38.43333,-19
38.44167,-19
38.45000,-18
38.45833,-18
38.46667,-18
38.47500,-18
38.48333,-18
38.49167,-18
38.50000,-18
38.50833,-18
38.51667,-18
38.52500,-18
38.53333,-18
38.54167,-18
38.55000,-18
38.55833,-18
38.56667,-18
38.57500,-18
38.58333,-18
38.59167,-18
38.60000,-18
38.60833,-18
38.61667,-18
38.62500,-18
38.63333,-17
38.64167,-17
38.65000,-18
38.65833,-18
38.66667,-18
38.67500,-18
38.68333,-18
38.69167,-17
38.70000,-17
38.70833,-17
38.71667,-17
38.72500,-17
38.73333,-18
38.74167,-18
38.75000,-18
38.75833,-18
38.76667,-19
38.77500,-19
38.78333,-19
38.79167,-19
38.80000,-19
38.80833,-19
38.81667,-19
38.82500,-19
38.83333,-19
38.84167,-19
38.85000,-19
38.85833,-19
38.86667,-19
38.87500,-19
38.88333,-19
38.89167,-19
38.90000,-19
38.90833,-20
38.91667,-20
38.92500,-20
38.93333,-20
38.94167,-20
38.95000,-20
38.95833,-20
38.96667,-20
38.97500,-20
38.98333,-20
38.99167,-20
39.00000,-20
39.00833,-20
39.01667,-20
39.02500,-20
39.03333,-20
39.04167,-20
39.05000,-20
39.05833,-20
39.06667,-21
39.07500,-21
39.08333,-21
39.09167,-22
39.10000,-22
39.10833,-22
39.11667,-22
39.12500,-22
39.13333,-22
39.14167,-22
39.15000,-22
39.15833,-22
39.16667,-21
39.17500,-21
39.18333,-21
39.19167,-21
39.20000,-22
39.20833,-22
39.21667,-22
39.22500,-22
39.23333,-22
39.24167,-22
39.25000,-22
39.25833,-22
39.26667,-21
39.27500,-21
39.28333,-21
39.29167,-22
39.30000,-22
39.30833,-22
39.31667,-22
39.32500,-22
39.33333,-22
39.34167,-22
39.35000,-22
39.35833,-22
39.36667,-22
39.37500,-22
39.38333,-22
39.39167,-22
39.40000,-22
39.40833,-22
39.41667,-23
39.42500,-23
39.43333,-22
39.44167,-22
39.45000,-22
39.45833,-22
39.46667,-22
39.47500,-22
39.48333,-22
39.49167,-22
39.50000,-22
39.50833,-22
39.51667,-22
39.52500,-22
39.53333,-22
39.54167,-22
39.55000,-22
39.55833,-21
39.56667,-21
39.57500,-22
39.58333,-22
39.59167,-22
39.60000,-22
39.60833,-23
39.61667,-22
39.62500,-22
39.63333,-22
39.64167,-22
39.65000,-22
39.65833,-22
39.66667,-22
39.67500,-22
39.68333,-22
39.69167,-22
39.70000,-22
39.70833,-22
39.71667,-22
39.72500,-22
39.73333,-22
39.74167,-22
39.75000,-22
39.75833,-22
39.76667,-22
39.77500,-21
39.78333,-21
39.79167,-21
39.80000,-21
39.80833,-21
39.81667,-21
39.82500,-21
39.83333,-22
39.84167,-22
39.85000,-22
39.85833,-22
39.86667,-23
39.87500,-23
39.88333,-22
39.89167,-22
39.90000,-22
39.90833,-22
39.91667,-22
39.92500,-22
39.93333,-22
39.94167,-22
39.95000,-22
39.95833,-22
39.96667,-22
39.97500,-22
39.98333,-22
39.99167,-22
40.00000,-22

[Fraction Collection Report]
# of Fractions,0
