[Header]
Application Name,LabSolutions
Version,5.97 SP1
Data File Name,C:\Users\cremerlab\Desktop\griffin\2021-03-26_calibration\2021-03-26_calibration_3262021_009_009.lcd
Output Date,3/26/2021
Output Time,11:47:22 PM

[File Information]
Type,Data File
Generated,3/26/2021 11:07:02 PM
Generated by,System Administrator
Modified,3/26/2021 11:47:22 PM
Modified by,System Administrator

[Sample Information]
Operator Name,System Administrator
Acquired,3/26/2021 11:07:21 PM
Sample Type,1:Standard
Level,9
Sample Name,2021-03-26_calibration_01mM
Sample ID,009
ISTD Amount1,1
ISTD Amount2,1
ISTD Amount3,1
ISTD Amount4,1
ISTD Amount5,1
ISTD Amount6,1
ISTD Amount7,1
ISTD Amount8,1
ISTD Amount9,1
ISTD Amount10,1
ISTD Amount11,1
ISTD Amount12,1
ISTD Amount13,1
ISTD Amount14,1
ISTD Amount15,1
ISTD Amount16,1
ISTD Amount17,1
ISTD Amount18,1
ISTD Amount19,1
ISTD Amount20,1
ISTD Amount21,1
ISTD Amount22,1
ISTD Amount23,1
ISTD Amount24,1
ISTD Amount25,1
ISTD Amount26,1
ISTD Amount27,1
ISTD Amount28,1
ISTD Amount29,1
ISTD Amount30,1
ISTD Amount31,1
ISTD Amount32,1
Sample Amount,1
Dilution Factor,1
Vial#,9
Injection Volume,20

[Original Files]
Data File,C:\Users\cremerlab\Desktop\griffin\2021-03-26_calibration\2021-03-26_calibration_3262021_009_009.lcd
Method File,C:\LabSolutions\Data\Project1\organicacidsetc2.lcm
Batch File,C:\Users\cremerlab\Desktop\griffin\2021-03-26_calibration\2021-03-26_calibration.lcb
Report Format File,c:\LabSolutions\System\DEFAULT.lsr

[File Description]


[Configuration]
Instrument Name,HPLC-PC-Instrument1
Instrument #,1
Line #,1
# of Detectors,2
Detector ID,Detector A,Detector B
Detector Name,Detector A,Detector B
# of Channels,1,1

[LC Chromatogram(Detector B-Ch1)]
Interval(msec),500
# of Points,4801
Start Time(min),0.000
End Time(min),40.000
Intensity Units,mV
Intensity Multiplier,0.001
R.Time (min),Intensity
0.00000,-1
0.00833,-1
0.01667,-0
0.02500,-0
0.03333,-1
0.04167,-1
0.05000,-1
0.05833,-1
0.06667,-1
0.07500,-1
0.08333,-1
0.09167,-1
0.10000,-1
0.10833,-1
0.11667,-1
0.12500,-0
0.13333,-0
0.14167,-0
0.15000,-0
0.15833,0
0.16667,0
0.17500,0
0.18333,0
0.19167,0
0.20000,0
0.20833,0
0.21667,-0
0.22500,-0
0.23333,-0
0.24167,-0
0.25000,-0
0.25833,0
0.26667,0
0.27500,0
0.28333,0
0.29167,0
0.30000,0
0.30833,1
0.31667,1
0.32500,1
0.33333,0
0.34167,-0
0.35000,-0
0.35833,-0
0.36667,0
0.37500,0
0.38333,0
0.39167,0
0.40000,0
0.40833,0
0.41667,0
0.42500,0
0.43333,0
0.44167,1
0.45000,1
0.45833,1
0.46667,0
0.47500,-0
0.48333,-0
0.49167,-0
0.50000,-1
0.50833,-1
0.51667,-1
0.52500,-0
0.53333,-0
0.54167,0
0.55000,0
0.55833,0
0.56667,0
0.57500,0
0.58333,0
0.59167,0
0.60000,0
0.60833,0
0.61667,-0
0.62500,-0
0.63333,-0
0.64167,-0
0.65000,-1
0.65833,-1
0.66667,-1
0.67500,-0
0.68333,-0
0.69167,-1
0.70000,-1
0.70833,-1
0.71667,-1
0.72500,-1
0.73333,-1
0.74167,-1
0.75000,-1
0.75833,-1
0.76667,-1
0.77500,-1
0.78333,-1
0.79167,-1
0.80000,-1
0.80833,-1
0.81667,-0
0.82500,-0
0.83333,-0
0.84167,-0
0.85000,-0
0.85833,-0
0.86667,-0
0.87500,-1
0.88333,-1
0.89167,-1
0.90000,-1
0.90833,-1
0.91667,-0
0.92500,-0
0.93333,-0
0.94167,-0
0.95000,-0
0.95833,-0
0.96667,-0
0.97500,0
0.98333,0
0.99167,0
1.00000,0
1.00833,-0
1.01667,-0
1.02500,-0
1.03333,-0
1.04167,0
1.05000,-0
1.05833,-0
1.06667,-0
1.07500,-0
1.08333,-0
1.09167,-1
1.10000,-1
1.10833,-1
1.11667,-1
1.12500,-1
1.13333,-0
1.14167,-0
1.15000,-0
1.15833,-0
1.16667,0
1.17500,0
1.18333,0
1.19167,0
1.20000,0
1.20833,0
1.21667,0
1.22500,0
1.23333,1
1.24167,0
1.25000,0
1.25833,0
1.26667,0
1.27500,0
1.28333,0
1.29167,0
1.30000,0
1.30833,0
1.31667,0
1.32500,0
1.33333,0
1.34167,-0
1.35000,-0
1.35833,-0
1.36667,-0
1.37500,-0
1.38333,-0
1.39167,-0
1.40000,-0
1.40833,-0
1.41667,-0
1.42500,-0
1.43333,-0
1.44167,-0
1.45000,-0
1.45833,-0
1.46667,-1
1.47500,-1
1.48333,-0
1.49167,-1
1.50000,-1
1.50833,-1
1.51667,-1
1.52500,-1
1.53333,-1
1.54167,-1
1.55000,-1
1.55833,-1
1.56667,-1
1.57500,-1
1.58333,-1
1.59167,-1
1.60000,-1
1.60833,-1
1.61667,-1
1.62500,-1
1.63333,-1
1.64167,-0
1.65000,-0
1.65833,-0
1.66667,-0
1.67500,-0
1.68333,0
1.69167,0
1.70000,-0
1.70833,-0
1.71667,-0
1.72500,-0
1.73333,-0
1.74167,-1
1.75000,-1
1.75833,-1
1.76667,-1
1.77500,-1
1.78333,-1
1.79167,-0
1.80000,-0
1.80833,0
1.81667,0
1.82500,0
1.83333,0
1.84167,0
1.85000,-0
1.85833,-1
1.86667,-1
1.87500,-1
1.88333,-1
1.89167,-2
1.90000,-1
1.90833,-1
1.91667,-1
1.92500,-1
1.93333,-1
1.94167,-1
1.95000,-2
1.95833,-2
1.96667,-2
1.97500,-1
1.98333,-1
1.99167,-1
2.00000,-2
2.00833,-1
2.01667,-1
2.02500,-1
2.03333,-1
2.04167,-2
2.05000,-2
2.05833,-2
2.06667,-2
2.07500,-2
2.08333,-2
2.09167,-2
2.10000,-3
2.10833,-3
2.11667,-3
2.12500,-3
2.13333,-3
2.14167,-3
2.15000,-2
2.15833,-2
2.16667,-3
2.17500,-2
2.18333,-3
2.19167,-3
2.20000,-3
2.20833,-3
2.21667,-3
2.22500,-3
2.23333,-3
2.24167,-3
2.25000,-3
2.25833,-3
2.26667,-3
2.27500,-3
2.28333,-3
2.29167,-3
2.30000,-3
2.30833,-3
2.31667,-3
2.32500,-3
2.33333,-3
2.34167,-3
2.35000,-3
2.35833,-3
2.36667,-3
2.37500,-3
2.38333,-2
2.39167,-2
2.40000,-2
2.40833,-2
2.41667,-2
2.42500,-3
2.43333,-3
2.44167,-3
2.45000,-3
2.45833,-3
2.46667,-4
2.47500,-3
2.48333,-3
2.49167,-3
2.50000,-3
2.50833,-3
2.51667,-3
2.52500,-3
2.53333,-3
2.54167,-3
2.55000,-3
2.55833,-3
2.56667,-3
2.57500,-3
2.58333,-3
2.59167,-3
2.60000,-3
2.60833,-3
2.61667,-3
2.62500,-3
2.63333,-3
2.64167,-3
2.65000,-3
2.65833,-3
2.66667,-3
2.67500,-4
2.68333,-4
2.69167,-4
2.70000,-4
2.70833,-4
2.71667,-4
2.72500,-4
2.73333,-4
2.74167,-4
2.75000,-4
2.75833,-4
2.76667,-4
2.77500,-4
2.78333,-3
2.79167,-3
2.80000,-3
2.80833,-3
2.81667,-3
2.82500,-3
2.83333,-3
2.84167,-3
2.85000,-3
2.85833,-3
2.86667,-3
2.87500,-3
2.88333,-3
2.89167,-3
2.90000,-3
2.90833,-4
2.91667,-4
2.92500,-3
2.93333,-3
2.94167,-3
2.95000,-3
2.95833,-3
2.96667,-3
2.97500,-3
2.98333,-3
2.99167,-3
3.00000,-3
3.00833,-2
3.01667,-2
3.02500,-2
3.03333,-2
3.04167,-2
3.05000,-2
3.05833,-2
3.06667,-2
3.07500,-2
3.08333,-3
3.09167,-3
3.10000,-3
3.10833,-2
3.11667,-2
3.12500,-2
3.13333,-3
3.14167,-3
3.15000,-3
3.15833,-4
3.16667,-4
3.17500,-3
3.18333,-3
3.19167,-3
3.20000,-3
3.20833,-2
3.21667,-2
3.22500,-2
3.23333,-2
3.24167,-2
3.25000,-2
3.25833,-3
3.26667,-3
3.27500,-3
3.28333,-3
3.29167,-3
3.30000,-3
3.30833,-3
3.31667,-3
3.32500,-3
3.33333,-2
3.34167,-2
3.35000,-1
3.35833,-1
3.36667,-1
3.37500,-2
3.38333,-2
3.39167,-2
3.40000,-2
3.40833,-2
3.41667,-2
3.42500,-3
3.43333,-3
3.44167,-3
3.45000,-2
3.45833,-2
3.46667,-2
3.47500,-2
3.48333,-1
3.49167,-1
3.50000,-2
3.50833,-2
3.51667,-2
3.52500,-2
3.53333,-2
3.54167,-2
3.55000,-2
3.55833,-3
3.56667,-3
3.57500,-3
3.58333,-3
3.59167,-3
3.60000,-2
3.60833,-2
3.61667,-2
3.62500,-2
3.63333,-2
3.64167,-2
3.65000,-1
3.65833,-1
3.66667,-1
3.67500,-1
3.68333,-1
3.69167,-1
3.70000,-1
3.70833,-1
3.71667,-2
3.72500,-2
3.73333,-1
3.74167,-2
3.75000,-2
3.75833,-2
3.76667,-2
3.77500,-2
3.78333,-2
3.79167,-2
3.80000,-2
3.80833,-2
3.81667,-2
3.82500,-2
3.83333,-2
3.84167,-2
3.85000,-2
3.85833,-2
3.86667,-2
3.87500,-2
3.88333,-2
3.89167,-2
3.90000,-2
3.90833,-3
3.91667,-3
3.92500,-3
3.93333,-2
3.94167,-2
3.95000,-2
3.95833,-2
3.96667,-2
3.97500,-3
3.98333,-3
3.99167,-2
4.00000,-2
4.00833,-2
4.01667,-2
4.02500,-2
4.03333,-2
4.04167,-2
4.05000,-2
4.05833,-2
4.06667,-2
4.07500,-2
4.08333,-3
4.09167,-2
4.10000,-2
4.10833,-2
4.11667,-3
4.12500,-3
4.13333,-3
4.14167,-3
4.15000,-3
4.15833,-3
4.16667,-3
4.17500,-3
4.18333,-3
4.19167,-3
4.20000,-3
4.20833,-3
4.21667,-3
4.22500,-3
4.23333,-3
4.24167,-3
4.25000,-3
4.25833,-3
4.26667,-3
4.27500,-3
4.28333,-3
4.29167,-3
4.30000,-3
4.30833,-3
4.31667,-3
4.32500,-3
4.33333,-3
4.34167,-3
4.35000,-3
4.35833,-3
4.36667,-3
4.37500,-3
4.38333,-3
4.39167,-3
4.40000,-4
4.40833,-4
4.41667,-4
4.42500,-4
4.43333,-4
4.44167,-4
4.45000,-4
4.45833,-4
4.46667,-4
4.47500,-4
4.48333,-4
4.49167,-4
4.50000,-4
4.50833,-4
4.51667,-4
4.52500,-4
4.53333,-4
4.54167,-4
4.55000,-4
4.55833,-4
4.56667,-4
4.57500,-4
4.58333,-4
4.59167,-3
4.60000,-3
4.60833,-3
4.61667,-4
4.62500,-4
4.63333,-4
4.64167,-4
4.65000,-4
4.65833,-4
4.66667,-4
4.67500,-4
4.68333,-4
4.69167,-4
4.70000,-4
4.70833,-4
4.71667,-4
4.72500,-4
4.73333,-4
4.74167,-4
4.75000,-4
4.75833,-4
4.76667,-4
4.77500,-4
4.78333,-4
4.79167,-4
4.80000,-5
4.80833,-5
4.81667,-5
4.82500,-5
4.83333,-5
4.84167,-5
4.85000,-4
4.85833,-4
4.86667,-4
4.87500,-4
4.88333,-4
4.89167,-4
4.90000,-4
4.90833,-4
4.91667,-4
4.92500,-4
4.93333,-4
4.94167,-4
4.95000,-4
4.95833,-4
4.96667,-4
4.97500,-4
4.98333,-5
4.99167,-5
5.00000,-5
5.00833,-4
5.01667,-4
5.02500,-4
5.03333,-4
5.04167,-3
5.05000,-4
5.05833,-4
5.06667,-4
5.07500,-3
5.08333,-3
5.09167,-3
5.10000,-3
5.10833,-3
5.11667,-3
5.12500,-4
5.13333,-4
5.14167,-4
5.15000,-4
5.15833,-4
5.16667,-4
5.17500,-4
5.18333,-4
5.19167,-4
5.20000,-4
5.20833,-4
5.21667,-4
5.22500,-4
5.23333,-4
5.24167,-4
5.25000,-5
5.25833,-5
5.26667,-4
5.27500,-4
5.28333,-4
5.29167,-4
5.30000,-4
5.30833,-4
5.31667,-4
5.32500,-4
5.33333,-4
5.34167,-5
5.35000,-5
5.35833,-5
5.36667,-5
5.37500,-5
5.38333,-5
5.39167,-5
5.40000,-5
5.40833,-5
5.41667,-4
5.42500,-4
5.43333,-4
5.44167,-4
5.45000,-4
5.45833,-4
5.46667,-4
5.47500,-5
5.48333,-5
5.49167,-5
5.50000,-5
5.50833,-5
5.51667,-5
5.52500,-5
5.53333,-5
5.54167,-5
5.55000,-5
5.55833,-6
5.56667,-6
5.57500,-6
5.58333,-6
5.59167,-6
5.60000,-6
5.60833,-6
5.61667,-6
5.62500,-5
5.63333,-5
5.64167,-5
5.65000,-5
5.65833,-5
5.66667,-5
5.67500,-5
5.68333,-5
5.69167,-5
5.70000,-5
5.70833,-5
5.71667,-5
5.72500,-5
5.73333,-5
5.74167,-5
5.75000,-5
5.75833,-5
5.76667,-5
5.77500,-5
5.78333,-5
5.79167,-5
5.80000,-5
5.80833,-5
5.81667,-4
5.82500,-4
5.83333,-4
5.84167,-4
5.85000,-4
5.85833,-4
5.86667,-4
5.87500,-4
5.88333,-5
5.89167,-5
5.90000,-5
5.90833,-5
5.91667,-5
5.92500,-5
5.93333,-5
5.94167,-5
5.95000,-5
5.95833,-5
5.96667,-5
5.97500,-5
5.98333,-5
5.99167,-5
6.00000,-5
6.00833,-5
6.01667,-5
6.02500,-5
6.03333,-5
6.04167,-5
6.05000,-5
6.05833,-5
6.06667,-6
6.07500,-6
6.08333,-6
6.09167,-6
6.10000,-7
6.10833,-7
6.11667,-7
6.12500,-6
6.13333,-6
6.14167,-6
6.15000,-6
6.15833,-6
6.16667,-6
6.17500,-6
6.18333,-6
6.19167,-6
6.20000,-6
6.20833,-5
6.21667,-5
6.22500,-5
6.23333,-5
6.24167,-5
6.25000,-6
6.25833,-6
6.26667,-5
6.27500,-5
6.28333,-5
6.29167,-5
6.30000,-5
6.30833,-5
6.31667,-6
6.32500,-6
6.33333,-6
6.34167,-6
6.35000,-5
6.35833,-5
6.36667,-5
6.37500,-6
6.38333,-6
6.39167,-6
6.40000,-6
6.40833,-6
6.41667,-6
6.42500,-7
6.43333,-7
6.44167,-6
6.45000,-6
6.45833,-6
6.46667,-6
6.47500,-6
6.48333,-6
6.49167,-6
6.50000,-6
6.50833,-6
6.51667,-6
6.52500,-6
6.53333,-6
6.54167,-6
6.55000,-6
6.55833,-6
6.56667,-6
6.57500,-6
6.58333,-5
6.59167,-5
6.60000,-5
6.60833,-5
6.61667,-5
6.62500,-5
6.63333,-5
6.64167,-5
6.65000,-5
6.65833,-5
6.66667,-5
6.67500,-5
6.68333,-5
6.69167,-5
6.70000,-5
6.70833,-5
6.71667,-5
6.72500,-6
6.73333,-6
6.74167,-6
6.75000,-6
6.75833,-6
6.76667,-6
6.77500,-6
6.78333,-6
6.79167,-6
6.80000,-6
6.80833,-6
6.81667,-6
6.82500,-6
6.83333,-6
6.84167,-6
6.85000,-7
6.85833,-7
6.86667,-7
6.87500,-7
6.88333,-6
6.89167,-6
6.90000,-6
6.90833,-6
6.91667,-6
6.92500,-6
6.93333,-6
6.94167,-6
6.95000,-6
6.95833,-6
6.96667,-6
6.97500,-6
6.98333,-6
6.99167,-6
7.00000,-6
7.00833,-6
7.01667,-6
7.02500,-6
7.03333,-7
7.04167,-7
7.05000,-7
7.05833,-7
7.06667,-7
7.07500,-6
7.08333,-6
7.09167,-7
7.10000,-7
7.10833,-7
7.11667,-7
7.12500,-7
7.13333,-7
7.14167,-7
7.15000,-7
7.15833,-7
7.16667,-7
7.17500,-7
7.18333,-7
7.19167,-7
7.20000,-7
7.20833,-7
7.21667,-6
7.22500,-7
7.23333,-7
7.24167,-7
7.25000,-6
7.25833,-6
7.26667,-7
7.27500,-7
7.28333,-7
7.29167,-7
7.30000,-7
7.30833,-7
7.31667,-7
7.32500,-7
7.33333,-7
7.34167,-8
7.35000,-8
7.35833,-8
7.36667,-8
7.37500,-8
7.38333,-7
7.39167,-7
7.40000,-7
7.40833,-7
7.41667,-7
7.42500,-7
7.43333,-7
7.44167,-7
7.45000,-7
7.45833,-7
7.46667,-7
7.47500,-7
7.48333,-7
7.49167,-7
7.50000,-8
7.50833,-8
7.51667,-8
7.52500,-7
7.53333,-7
7.54167,-7
7.55000,-7
7.55833,-7
7.56667,-7
7.57500,-7
7.58333,-7
7.59167,-7
7.60000,-7
7.60833,-7
7.61667,-7
7.62500,-7
7.63333,-7
7.64167,-7
7.65000,-7
7.65833,-7
7.66667,-7
7.67500,-7
7.68333,-7
7.69167,-7
7.70000,-7
7.70833,-7
7.71667,-7
7.72500,-7
7.73333,-7
7.74167,-7
7.75000,-7
7.75833,-7
7.76667,-7
7.77500,-7
7.78333,-7
7.79167,-7
7.80000,-7
7.80833,-7
7.81667,-7
7.82500,-7
7.83333,-7
7.84167,-7
7.85000,-7
7.85833,-7
7.86667,-7
7.87500,-7
7.88333,-7
7.89167,-7
7.90000,-7
7.90833,-7
7.91667,-7
7.92500,-7
7.93333,-7
7.94167,-7
7.95000,-7
7.95833,-7
7.96667,-7
7.97500,-7
7.98333,-7
7.99167,-7
8.00000,-7
8.00833,-7
8.01667,-7
8.02500,-7
8.03333,-7
8.04167,-7
8.05000,-7
8.05833,-7
8.06667,-6
8.07500,-6
8.08333,-6
8.09167,-6
8.10000,-6
8.10833,-6
8.11667,-6
8.12500,-6
8.13333,-6
8.14167,-6
8.15000,-6
8.15833,-6
8.16667,-6
8.17500,-6
8.18333,-6
8.19167,-6
8.20000,-6
8.20833,-6
8.21667,-6
8.22500,-6
8.23333,-6
8.24167,-7
8.25000,-7
8.25833,-7
8.26667,-7
8.27500,-8
8.28333,-7
8.29167,-7
8.30000,-7
8.30833,-7
8.31667,-7
8.32500,-7
8.33333,-7
8.34167,-7
8.35000,-6
8.35833,-6
8.36667,-6
8.37500,-6
8.38333,-6
8.39167,-6
8.40000,-6
8.40833,-6
8.41667,-6
8.42500,-6
8.43333,-6
8.44167,-6
8.45000,-6
8.45833,-6
8.46667,-6
8.47500,-6
8.48333,-6
8.49167,-6
8.50000,-6
8.50833,-6
8.51667,-6
8.52500,-7
8.53333,-7
8.54167,-7
8.55000,-6
8.55833,-6
8.56667,-6
8.57500,-6
8.58333,-6
8.59167,-7
8.60000,-7
8.60833,-7
8.61667,-7
8.62500,-6
8.63333,-6
8.64167,-7
8.65000,-7
8.65833,-7
8.66667,-7
8.67500,-7
8.68333,-7
8.69167,-7
8.70000,-7
8.70833,-7
8.71667,-7
8.72500,-7
8.73333,-7
8.74167,-7
8.75000,-8
8.75833,-8
8.76667,-8
8.77500,-7
8.78333,-7
8.79167,-7
8.80000,-7
8.80833,-7
8.81667,-7
8.82500,-7
8.83333,-7
8.84167,-7
8.85000,-7
8.85833,-7
8.86667,-7
8.87500,-7
8.88333,-7
8.89167,-7
8.90000,-8
8.90833,-8
8.91667,-8
8.92500,-8
8.93333,-8
8.94167,-8
8.95000,-8
8.95833,-8
8.96667,-7
8.97500,-7
8.98333,-7
8.99167,-7
9.00000,-7
9.00833,-7
9.01667,-7
9.02500,-6
9.03333,-6
9.04167,-6
9.05000,-6
9.05833,-6
9.06667,-6
9.07500,-7
9.08333,-7
9.09167,-7
9.10000,-7
9.10833,-8
9.11667,-8
9.12500,-8
9.13333,-7
9.14167,-7
9.15000,-7
9.15833,-7
9.16667,-7
9.17500,-7
9.18333,-7
9.19167,-7
9.20000,-7
9.20833,-7
9.21667,-7
9.22500,-7
9.23333,-7
9.24167,-7
9.25000,-7
9.25833,-7
9.26667,-7
9.27500,-7
9.28333,-7
9.29167,-7
9.30000,-7
9.30833,-8
9.31667,-8
9.32500,-7
9.33333,-6
9.34167,-6
9.35000,-6
9.35833,-6
9.36667,-6
9.37500,-7
9.38333,-7
9.39167,-6
9.40000,-6
9.40833,-6
9.41667,-7
9.42500,-7
9.43333,-7
9.44167,-7
9.45000,-7
9.45833,-7
9.46667,-7
9.47500,-7
9.48333,-7
9.49167,-7
9.50000,-7
9.50833,-7
9.51667,-7
9.52500,-7
9.53333,-7
9.54167,-7
9.55000,-7
9.55833,-7
9.56667,-7
9.57500,-7
9.58333,-7
9.59167,-7
9.60000,-7
9.60833,-8
9.61667,-8
9.62500,-8
9.63333,-8
9.64167,-8
9.65000,-8
9.65833,-8
9.66667,-8
9.67500,-8
9.68333,-8
9.69167,-8
9.70000,-8
9.70833,-8
9.71667,-8
9.72500,-8
9.73333,-8
9.74167,-7
9.75000,-7
9.75833,-7
9.76667,-6
9.77500,-6
9.78333,-7
9.79167,-7
9.80000,-7
9.80833,-8
9.81667,-8
9.82500,-8
9.83333,-8
9.84167,-7
9.85000,-7
9.85833,-7
9.86667,-7
9.87500,-7
9.88333,-7
9.89167,-7
9.90000,-7
9.90833,-7
9.91667,-7
9.92500,-7
9.93333,-7
9.94167,-8
9.95000,-8
9.95833,-8
9.96667,-8
9.97500,-8
9.98333,-8
9.99167,-9
10.00000,-9
10.00833,-9
10.01667,-9
10.02500,-9
10.03333,-9
10.04167,-9
10.05000,-9
10.05833,-8
10.06667,-9
10.07500,-9
10.08333,-9
10.09167,-9
10.10000,-9
10.10833,-9
10.11667,-9
10.12500,-9
10.13333,-9
10.14167,-9
10.15000,-9
10.15833,-9
10.16667,-9
10.17500,-9
10.18333,-9
10.19167,-9
10.20000,-9
10.20833,-9
10.21667,-9
10.22500,-10
10.23333,-10
10.24167,-9
10.25000,-9
10.25833,-9
10.26667,-9
10.27500,-9
10.28333,-9
10.29167,-9
10.30000,-9
10.30833,-9
10.31667,-9
10.32500,-9
10.33333,-9
10.34167,-9
10.35000,-9
10.35833,-9
10.36667,-9
10.37500,-10
10.38333,-10
10.39167,-10
10.40000,-10
10.40833,-10
10.41667,-10
10.42500,-10
10.43333,-10
10.44167,-10
10.45000,-10
10.45833,-11
10.46667,-12
10.47500,-12
10.48333,-13
10.49167,-13
10.50000,-14
10.50833,-14
10.51667,-15
10.52500,-16
10.53333,-17
10.54167,-19
10.55000,-21
10.55833,-24
10.56667,-28
10.57500,-34
10.58333,-41
10.59167,-51
10.60000,-64
10.60833,-81
10.61667,-104
10.62500,-134
10.63333,-173
10.64167,-224
10.65000,-290
10.65833,-374
10.66667,-479
10.67500,-612
10.68333,-775
10.69167,-976
10.70000,-1219
10.70833,-1510
10.71667,-1856
10.72500,-2261
10.73333,-2731
10.74167,-3269
10.75000,-3879
10.75833,-4562
10.76667,-5318
10.77500,-6144
10.78333,-7036
10.79167,-7988
10.80000,-8989
10.80833,-10030
10.81667,-11097
10.82500,-12177
10.83333,-13255
10.84167,-14315
10.85000,-15340
10.85833,-16316
10.86667,-17228
10.87500,-18064
10.88333,-18810
10.89167,-19459
10.90000,-20001
10.90833,-20432
10.91667,-20748
10.92500,-20949
10.93333,-21034
10.94167,-21007
10.95000,-20872
10.95833,-20635
10.96667,-20303
10.97500,-19884
10.98333,-19387
10.99167,-18821
11.00000,-18195
11.00833,-17519
11.01667,-16802
11.02500,-16053
11.03333,-15282
11.04167,-14496
11.05000,-13703
11.05833,-12911
11.06667,-12126
11.07500,-11353
11.08333,-10597
11.09167,-9864
11.10000,-9155
11.10833,-8475
11.11667,-7826
11.12500,-7209
11.13333,-6625
11.14167,-6076
11.15000,-5561
11.15833,-5080
11.16667,-4633
11.17500,-4219
11.18333,-3836
11.19167,-3484
11.20000,-3161
11.20833,-2866
11.21667,-2597
11.22500,-2352
11.23333,-2130
11.24167,-1928
11.25000,-1747
11.25833,-1583
11.26667,-1435
11.27500,-1302
11.28333,-1183
11.29167,-1075
11.30000,-980
11.30833,-894
11.31667,-817
11.32500,-749
11.33333,-687
11.34167,-632
11.35000,-583
11.35833,-538
11.36667,-499
11.37500,-464
11.38333,-431
11.39167,-402
11.40000,-377
11.40833,-354
11.41667,-333
11.42500,-314
11.43333,-297
11.44167,-281
11.45000,-267
11.45833,-254
11.46667,-242
11.47500,-231
11.48333,-221
11.49167,-212
11.50000,-204
11.50833,-196
11.51667,-189
11.52500,-182
11.53333,-175
11.54167,-169
11.55000,-164
11.55833,-158
11.56667,-154
11.57500,-149
11.58333,-145
11.59167,-141
11.60000,-137
11.60833,-133
11.61667,-130
11.62500,-127
11.63333,-123
11.64167,-120
11.65000,-117
11.65833,-114
11.66667,-111
11.67500,-109
11.68333,-106
11.69167,-104
11.70000,-102
11.70833,-100
11.71667,-99
11.72500,-97
11.73333,-95
11.74167,-94
11.75000,-93
11.75833,-91
11.76667,-90
11.77500,-89
11.78333,-87
11.79167,-86
11.80000,-84
11.80833,-83
11.81667,-82
11.82500,-81
11.83333,-80
11.84167,-79
11.85000,-78
11.85833,-77
11.86667,-76
11.87500,-76
11.88333,-75
11.89167,-74
11.90000,-73
11.90833,-73
11.91667,-72
11.92500,-71
11.93333,-70
11.94167,-69
11.95000,-69
11.95833,-68
11.96667,-68
11.97500,-67
11.98333,-67
11.99167,-66
12.00000,-65
12.00833,-65
12.01667,-64
12.02500,-64
12.03333,-64
12.04167,-63
12.05000,-63
12.05833,-63
12.06667,-63
12.07500,-62
12.08333,-62
12.09167,-62
12.10000,-62
12.10833,-61
12.11667,-61
12.12500,-61
12.13333,-61
12.14167,-60
12.15000,-60
12.15833,-59
12.16667,-59
12.17500,-59
12.18333,-59
12.19167,-59
12.20000,-59
12.20833,-59
12.21667,-58
12.22500,-58
12.23333,-57
12.24167,-57
12.25000,-56
12.25833,-56
12.26667,-56
12.27500,-56
12.28333,-55
12.29167,-55
12.30000,-55
12.30833,-55
12.31667,-54
12.32500,-54
12.33333,-53
12.34167,-53
12.35000,-53
12.35833,-53
12.36667,-52
12.37500,-52
12.38333,-52
12.39167,-51
12.40000,-51
12.40833,-51
12.41667,-51
12.42500,-50
12.43333,-50
12.44167,-50
12.45000,-49
12.45833,-49
12.46667,-49
12.47500,-48
12.48333,-48
12.49167,-48
12.50000,-48
12.50833,-48
12.51667,-47
12.52500,-47
12.53333,-47
12.54167,-47
12.55000,-46
12.55833,-46
12.56667,-45
12.57500,-45
12.58333,-44
12.59167,-44
12.60000,-44
12.60833,-43
12.61667,-43
12.62500,-44
12.63333,-43
12.64167,-43
12.65000,-43
12.65833,-42
12.66667,-42
12.67500,-42
12.68333,-41
12.69167,-41
12.70000,-41
12.70833,-41
12.71667,-41
12.72500,-41
12.73333,-40
12.74167,-40
12.75000,-40
12.75833,-40
12.76667,-40
12.77500,-40
12.78333,-40
12.79167,-40
12.80000,-39
12.80833,-39
12.81667,-38
12.82500,-38
12.83333,-38
12.84167,-38
12.85000,-38
12.85833,-38
12.86667,-38
12.87500,-37
12.88333,-37
12.89167,-37
12.90000,-37
12.90833,-37
12.91667,-37
12.92500,-36
12.93333,-36
12.94167,-36
12.95000,-36
12.95833,-36
12.96667,-35
12.97500,-35
12.98333,-35
12.99167,-34
13.00000,-34
13.00833,-34
13.01667,-34
13.02500,-34
13.03333,-34
13.04167,-34
13.05000,-34
13.05833,-33
13.06667,-33
13.07500,-33
13.08333,-33
13.09167,-33
13.10000,-33
13.10833,-33
13.11667,-33
13.12500,-32
13.13333,-32
13.14167,-32
13.15000,-32
13.15833,-32
13.16667,-32
13.17500,-32
13.18333,-32
13.19167,-32
13.20000,-32
13.20833,-32
13.21667,-32
13.22500,-32
13.23333,-32
13.24167,-32
13.25000,-31
13.25833,-31
13.26667,-31
13.27500,-31
13.28333,-31
13.29167,-31
13.30000,-31
13.30833,-31
13.31667,-31
13.32500,-30
13.33333,-30
13.34167,-30
13.35000,-30
13.35833,-30
13.36667,-29
13.37500,-29
13.38333,-29
13.39167,-29
13.40000,-30
13.40833,-30
13.41667,-30
13.42500,-30
13.43333,-30
13.44167,-30
13.45000,-30
13.45833,-30
13.46667,-29
13.47500,-29
13.48333,-29
13.49167,-29
13.50000,-29
13.50833,-29
13.51667,-29
13.52500,-29
13.53333,-29
13.54167,-29
13.55000,-29
13.55833,-29
13.56667,-29
13.57500,-29
13.58333,-29
13.59167,-29
13.60000,-29
13.60833,-28
13.61667,-28
13.62500,-28
13.63333,-29
13.64167,-29
13.65000,-29
13.65833,-29
13.66667,-29
13.67500,-28
13.68333,-28
13.69167,-28
13.70000,-27
13.70833,-27
13.71667,-27
13.72500,-27
13.73333,-27
13.74167,-27
13.75000,-27
13.75833,-27
13.76667,-27
13.77500,-27
13.78333,-28
13.79167,-28
13.80000,-28
13.80833,-28
13.81667,-28
13.82500,-27
13.83333,-27
13.84167,-27
13.85000,-27
13.85833,-27
13.86667,-27
13.87500,-27
13.88333,-26
13.89167,-27
13.90000,-27
13.90833,-27
13.91667,-27
13.92500,-27
13.93333,-27
13.94167,-27
13.95000,-27
13.95833,-27
13.96667,-26
13.97500,-26
13.98333,-25
13.99167,-25
14.00000,-26
14.00833,-26
14.01667,-26
14.02500,-25
14.03333,-25
14.04167,-25
14.05000,-25
14.05833,-25
14.06667,-25
14.07500,-25
14.08333,-25
14.09167,-25
14.10000,-25
14.10833,-26
14.11667,-26
14.12500,-25
14.13333,-25
14.14167,-26
14.15000,-25
14.15833,-25
14.16667,-25
14.17500,-24
14.18333,-24
14.19167,-24
14.20000,-24
14.20833,-25
14.21667,-25
14.22500,-25
14.23333,-25
14.24167,-25
14.25000,-25
14.25833,-25
14.26667,-25
14.27500,-24
14.28333,-24
14.29167,-24
14.30000,-24
14.30833,-24
14.31667,-24
14.32500,-24
14.33333,-24
14.34167,-24
14.35000,-24
14.35833,-24
14.36667,-24
14.37500,-24
14.38333,-23
14.39167,-23
14.40000,-22
14.40833,-22
14.41667,-22
14.42500,-23
14.43333,-23
14.44167,-23
14.45000,-23
14.45833,-23
14.46667,-23
14.47500,-23
14.48333,-23
14.49167,-23
14.50000,-23
14.50833,-23
14.51667,-23
14.52500,-23
14.53333,-22
14.54167,-22
14.55000,-22
14.55833,-22
14.56667,-22
14.57500,-22
14.58333,-22
14.59167,-22
14.60000,-22
14.60833,-22
14.61667,-22
14.62500,-22
14.63333,-22
14.64167,-22
14.65000,-22
14.65833,-22
14.66667,-22
14.67500,-22
14.68333,-22
14.69167,-21
14.70000,-21
14.70833,-21
14.71667,-21
14.72500,-21
14.73333,-21
14.74167,-21
14.75000,-21
14.75833,-20
14.76667,-21
14.77500,-21
14.78333,-21
14.79167,-21
14.80000,-21
14.80833,-21
14.81667,-21
14.82500,-20
14.83333,-20
14.84167,-20
14.85000,-20
14.85833,-20
14.86667,-20
14.87500,-20
14.88333,-20
14.89167,-20
14.90000,-19
14.90833,-19
14.91667,-19
14.92500,-19
14.93333,-19
14.94167,-19
14.95000,-19
14.95833,-18
14.96667,-18
14.97500,-17
14.98333,-17
14.99167,-16
15.00000,-15
15.00833,-15
15.01667,-14
15.02500,-13
15.03333,-13
15.04167,-12
15.05000,-11
15.05833,-10
15.06667,-9
15.07500,-8
15.08333,-8
15.09167,-6
15.10000,-5
15.10833,-3
15.11667,-1
15.12500,1
15.13333,4
15.14167,7
15.15000,11
15.15833,15
15.16667,21
15.17500,27
15.18333,34
15.19167,43
15.20000,54
15.20833,66
15.21667,80
15.22500,96
15.23333,115
15.24167,136
15.25000,161
15.25833,189
15.26667,220
15.27500,256
15.28333,297
15.29167,342
15.30000,392
15.30833,448
15.31667,510
15.32500,577
15.33333,650
15.34167,731
15.35000,817
15.35833,909
15.36667,1008
15.37500,1113
15.38333,1224
15.39167,1341
15.40000,1463
15.40833,1590
15.41667,1721
15.42500,1856
15.43333,1994
15.44167,2134
15.45000,2275
15.45833,2416
15.46667,2556
15.47500,2694
15.48333,2831
15.49167,2963
15.50000,3091
15.50833,3213
15.51667,3328
15.52500,3436
15.53333,3535
15.54167,3625
15.55000,3705
15.55833,3775
15.56667,3834
15.57500,3882
15.58333,3918
15.59167,3943
15.60000,3956
15.60833,3958
15.61667,3948
15.62500,3927
15.63333,3896
15.64167,3854
15.65000,3802
15.65833,3742
15.66667,3672
15.67500,3595
15.68333,3510
15.69167,3419
15.70000,3322
15.70833,3220
15.71667,3114
15.72500,3004
15.73333,2892
15.74167,2778
15.75000,2663
15.75833,2547
15.76667,2432
15.77500,2317
15.78333,2203
15.79167,2091
15.80000,1981
15.80833,1873
15.81667,1767
15.82500,1665
15.83333,1566
15.84167,1471
15.85000,1379
15.85833,1291
15.86667,1207
15.87500,1127
15.88333,1051
15.89167,978
15.90000,909
15.90833,845
15.91667,784
15.92500,726
15.93333,672
15.94167,621
15.95000,573
15.95833,529
15.96667,488
15.97500,450
15.98333,415
15.99167,382
16.00000,351
16.00833,322
16.01667,296
16.02500,271
16.03333,249
16.04167,229
16.05000,210
16.05833,192
16.06667,176
16.07500,162
16.08333,148
16.09167,136
16.10000,125
16.10833,115
16.11667,105
16.12500,96
16.13333,88
16.14167,80
16.15000,73
16.15833,67
16.16667,62
16.17500,57
16.18333,52
16.19167,48
16.20000,44
16.20833,41
16.21667,38
16.22500,35
16.23333,32
16.24167,29
16.25000,27
16.25833,25
16.26667,23
16.27500,21
16.28333,20
16.29167,18
16.30000,16
16.30833,15
16.31667,13
16.32500,12
16.33333,11
16.34167,10
16.35000,9
16.35833,8
16.36667,7
16.37500,6
16.38333,6
16.39167,5
16.40000,5
16.40833,4
16.41667,3
16.42500,3
16.43333,3
16.44167,2
16.45000,2
16.45833,1
16.46667,1
16.47500,1
16.48333,1
16.49167,0
16.50000,-0
16.50833,-0
16.51667,-1
16.52500,-1
16.53333,-2
16.54167,-2
16.55000,-2
16.55833,-2
16.56667,-2
16.57500,-2
16.58333,-2
16.59167,-3
16.60000,-3
16.60833,-3
16.61667,-3
16.62500,-3
16.63333,-3
16.64167,-4
16.65000,-4
16.65833,-4
16.66667,-5
16.67500,-5
16.68333,-5
16.69167,-5
16.70000,-5
16.70833,-5
16.71667,-5
16.72500,-5
16.73333,-5
16.74167,-6
16.75000,-6
16.75833,-6
16.76667,-6
16.77500,-6
16.78333,-6
16.79167,-6
16.80000,-6
16.80833,-6
16.81667,-6
16.82500,-6
16.83333,-6
16.84167,-6
16.85000,-7
16.85833,-7
16.86667,-7
16.87500,-7
16.88333,-7
16.89167,-7
16.90000,-7
16.90833,-8
16.91667,-7
16.92500,-7
16.93333,-8
16.94167,-8
16.95000,-8
16.95833,-9
16.96667,-9
16.97500,-8
16.98333,-8
16.99167,-9
17.00000,-9
17.00833,-9
17.01667,-10
17.02500,-10
17.03333,-10
17.04167,-10
17.05000,-10
17.05833,-10
17.06667,-10
17.07500,-10
17.08333,-10
17.09167,-10
17.10000,-10
17.10833,-10
17.11667,-10
17.12500,-10
17.13333,-10
17.14167,-11
17.15000,-11
17.15833,-11
17.16667,-11
17.17500,-10
17.18333,-10
17.19167,-11
17.20000,-11
17.20833,-11
17.21667,-11
17.22500,-11
17.23333,-11
17.24167,-11
17.25000,-11
17.25833,-11
17.26667,-12
17.27500,-12
17.28333,-12
17.29167,-12
17.30000,-12
17.30833,-12
17.31667,-12
17.32500,-12
17.33333,-12
17.34167,-12
17.35000,-13
17.35833,-12
17.36667,-12
17.37500,-12
17.38333,-12
17.39167,-12
17.40000,-12
17.40833,-12
17.41667,-12
17.42500,-12
17.43333,-12
17.44167,-12
17.45000,-12
17.45833,-12
17.46667,-12
17.47500,-12
17.48333,-13
17.49167,-13
17.50000,-13
17.50833,-13
17.51667,-13
17.52500,-13
17.53333,-13
17.54167,-12
17.55000,-13
17.55833,-13
17.56667,-13
17.57500,-13
17.58333,-13
17.59167,-13
17.60000,-13
17.60833,-13
17.61667,-13
17.62500,-13
17.63333,-13
17.64167,-13
17.65000,-13
17.65833,-14
17.66667,-14
17.67500,-14
17.68333,-14
17.69167,-14
17.70000,-14
17.70833,-14
17.71667,-14
17.72500,-15
17.73333,-14
17.74167,-15
17.75000,-15
17.75833,-15
17.76667,-15
17.77500,-15
17.78333,-15
17.79167,-14
17.80000,-15
17.80833,-14
17.81667,-14
17.82500,-14
17.83333,-14
17.84167,-14
17.85000,-14
17.85833,-14
17.86667,-15
17.87500,-15
17.88333,-15
17.89167,-15
17.90000,-15
17.90833,-14
17.91667,-14
17.92500,-14
17.93333,-14
17.94167,-14
17.95000,-14
17.95833,-14
17.96667,-14
17.97500,-14
17.98333,-14
17.99167,-14
18.00000,-14
18.00833,-13
18.01667,-13
18.02500,-13
18.03333,-14
18.04167,-14
18.05000,-15
18.05833,-15
18.06667,-15
18.07500,-16
18.08333,-15
18.09167,-15
18.10000,-16
18.10833,-15
18.11667,-15
18.12500,-15
18.13333,-15
18.14167,-15
18.15000,-15
18.15833,-15
18.16667,-15
18.17500,-15
18.18333,-15
18.19167,-15
18.20000,-14
18.20833,-15
18.21667,-15
18.22500,-15
18.23333,-15
18.24167,-15
18.25000,-15
18.25833,-15
18.26667,-15
18.27500,-15
18.28333,-15
18.29167,-15
18.30000,-15
18.30833,-15
18.31667,-15
18.32500,-15
18.33333,-15
18.34167,-14
18.35000,-14
18.35833,-14
18.36667,-14
18.37500,-14
18.38333,-14
18.39167,-15
18.40000,-15
18.40833,-15
18.41667,-15
18.42500,-15
18.43333,-15
18.44167,-15
18.45000,-15
18.45833,-15
18.46667,-15
18.47500,-14
18.48333,-14
18.49167,-14
18.50000,-14
18.50833,-14
18.51667,-14
18.52500,-14
18.53333,-14
18.54167,-14
18.55000,-14
18.55833,-14
18.56667,-14
18.57500,-14
18.58333,-14
18.59167,-14
18.60000,-13
18.60833,-13
18.61667,-12
18.62500,-12
18.63333,-12
18.64167,-12
18.65000,-12
18.65833,-11
18.66667,-11
18.67500,-11
18.68333,-11
18.69167,-11
18.70000,-10
18.70833,-10
18.71667,-9
18.72500,-8
18.73333,-8
18.74167,-8
18.75000,-7
18.75833,-6
18.76667,-6
18.77500,-5
18.78333,-5
18.79167,-4
18.80000,-3
18.80833,-3
18.81667,-2
18.82500,-1
18.83333,-1
18.84167,-0
18.85000,1
18.85833,1
18.86667,2
18.87500,2
18.88333,2
18.89167,3
18.90000,3
18.90833,3
18.91667,4
18.92500,4
18.93333,4
18.94167,4
18.95000,4
18.95833,4
18.96667,4
18.97500,4
18.98333,4
18.99167,4
19.00000,3
19.00833,3
19.01667,2
19.02500,2
19.03333,2
19.04167,2
19.05000,1
19.05833,1
19.06667,0
19.07500,-1
19.08333,-1
19.09167,-2
19.10000,-3
19.10833,-3
19.11667,-4
19.12500,-4
19.13333,-5
19.14167,-6
19.15000,-6
19.15833,-7
19.16667,-7
19.17500,-8
19.18333,-9
19.19167,-9
19.20000,-10
19.20833,-10
19.21667,-10
19.22500,-10
19.23333,-10
19.24167,-11
19.25000,-11
19.25833,-12
19.26667,-12
19.27500,-12
19.28333,-12
19.29167,-13
19.30000,-13
19.30833,-13
19.31667,-13
19.32500,-14
19.33333,-14
19.34167,-14
19.35000,-15
19.35833,-15
19.36667,-15
19.37500,-15
19.38333,-15
19.39167,-15
19.40000,-15
19.40833,-15
19.41667,-16
19.42500,-16
19.43333,-16
19.44167,-16
19.45000,-16
19.45833,-16
19.46667,-16
19.47500,-17
19.48333,-17
19.49167,-17
19.50000,-17
19.50833,-17
19.51667,-16
19.52500,-16
19.53333,-16
19.54167,-16
19.55000,-15
19.55833,-15
19.56667,-15
19.57500,-15
19.58333,-15
19.59167,-16
19.60000,-16
19.60833,-16
19.61667,-16
19.62500,-16
19.63333,-16
19.64167,-16
19.65000,-16
19.65833,-16
19.66667,-17
19.67500,-17
19.68333,-17
19.69167,-17
19.70000,-17
19.70833,-17
19.71667,-17
19.72500,-17
19.73333,-17
19.74167,-17
19.75000,-16
19.75833,-16
19.76667,-16
19.77500,-16
19.78333,-16
19.79167,-16
19.80000,-16
19.80833,-16
19.81667,-16
19.82500,-16
19.83333,-16
19.84167,-16
19.85000,-16
19.85833,-16
19.86667,-16
19.87500,-16
19.88333,-17
19.89167,-17
19.90000,-17
19.90833,-16
19.91667,-16
19.92500,-17
19.93333,-17
19.94167,-17
19.95000,-17
19.95833,-18
19.96667,-18
19.97500,-18
19.98333,-17
19.99167,-17
20.00000,-17
20.00833,-16
20.01667,-17
20.02500,-17
20.03333,-17
20.04167,-17
20.05000,-17
20.05833,-17
20.06667,-18
20.07500,-18
20.08333,-17
20.09167,-17
20.10000,-17
20.10833,-17
20.11667,-17
20.12500,-16
20.13333,-16
20.14167,-16
20.15000,-16
20.15833,-16
20.16667,-17
20.17500,-17
20.18333,-17
20.19167,-17
20.20000,-17
20.20833,-17
20.21667,-17
20.22500,-17
20.23333,-17
20.24167,-17
20.25000,-17
20.25833,-17
20.26667,-17
20.27500,-17
20.28333,-17
20.29167,-17
20.30000,-18
20.30833,-18
20.31667,-18
20.32500,-18
20.33333,-18
20.34167,-18
20.35000,-18
20.35833,-18
20.36667,-18
20.37500,-18
20.38333,-18
20.39167,-18
20.40000,-18
20.40833,-18
20.41667,-18
20.42500,-18
20.43333,-18
20.44167,-18
20.45000,-18
20.45833,-17
20.46667,-18
20.47500,-18
20.48333,-18
20.49167,-17
20.50000,-17
20.50833,-17
20.51667,-17
20.52500,-17
20.53333,-17
20.54167,-17
20.55000,-17
20.55833,-18
20.56667,-18
20.57500,-18
20.58333,-18
20.59167,-18
20.60000,-18
20.60833,-17
20.61667,-17
20.62500,-17
20.63333,-17
20.64167,-17
20.65000,-17
20.65833,-18
20.66667,-18
20.67500,-18
20.68333,-18
20.69167,-17
20.70000,-17
20.70833,-17
20.71667,-17
20.72500,-17
20.73333,-17
20.74167,-17
20.75000,-17
20.75833,-17
20.76667,-17
20.77500,-17
20.78333,-17
20.79167,-18
20.80000,-18
20.80833,-17
20.81667,-17
20.82500,-17
20.83333,-18
20.84167,-18
20.85000,-18
20.85833,-18
20.86667,-18
20.87500,-18
20.88333,-18
20.89167,-18
20.90000,-17
20.90833,-17
20.91667,-17
20.92500,-17
20.93333,-17
20.94167,-17
20.95000,-17
20.95833,-17
20.96667,-17
20.97500,-17
20.98333,-17
20.99167,-17
21.00000,-17
21.00833,-17
21.01667,-17
21.02500,-18
21.03333,-17
21.04167,-17
21.05000,-17
21.05833,-18
21.06667,-18
21.07500,-18
21.08333,-18
21.09167,-17
21.10000,-17
21.10833,-18
21.11667,-18
21.12500,-18
21.13333,-18
21.14167,-18
21.15000,-18
21.15833,-18
21.16667,-18
21.17500,-18
21.18333,-18
21.19167,-18
21.20000,-18
21.20833,-18
21.21667,-18
21.22500,-18
21.23333,-17
21.24167,-17
21.25000,-17
21.25833,-17
21.26667,-17
21.27500,-17
21.28333,-17
21.29167,-16
21.30000,-16
21.30833,-16
21.31667,-17
21.32500,-17
21.33333,-18
21.34167,-18
21.35000,-18
21.35833,-18
21.36667,-18
21.37500,-17
21.38333,-17
21.39167,-17
21.40000,-17
21.40833,-16
21.41667,-16
21.42500,-15
21.43333,-15
21.44167,-15
21.45000,-15
21.45833,-14
21.46667,-14
21.47500,-14
21.48333,-14
21.49167,-13
21.50000,-13
21.50833,-12
21.51667,-11
21.52500,-10
21.53333,-9
21.54167,-8
21.55000,-7
21.55833,-5
21.56667,-3
21.57500,-1
21.58333,1
21.59167,3
21.60000,6
21.60833,9
21.61667,12
21.62500,15
21.63333,20
21.64167,24
21.65000,29
21.65833,35
21.66667,41
21.67500,48
21.68333,56
21.69167,64
21.70000,72
21.70833,82
21.71667,93
21.72500,105
21.73333,117
21.74167,131
21.75000,146
21.75833,162
21.76667,179
21.77500,197
21.78333,217
21.79167,238
21.80000,260
21.80833,283
21.81667,307
21.82500,332
21.83333,359
21.84167,387
21.85000,415
21.85833,444
21.86667,474
21.87500,505
21.88333,536
21.89167,568
21.90000,600
21.90833,632
21.91667,663
21.92500,695
21.93333,727
21.94167,758
21.95000,788
21.95833,817
21.96667,845
21.97500,871
21.98333,897
21.99167,920
22.00000,942
22.00833,962
22.01667,979
22.02500,995
22.03333,1009
22.04167,1020
22.05000,1029
22.05833,1036
22.06667,1040
22.07500,1042
22.08333,1041
22.09167,1038
22.10000,1033
22.10833,1025
22.11667,1015
22.12500,1003
22.13333,989
22.14167,973
22.15000,955
22.15833,936
22.16667,915
22.17500,892
22.18333,868
22.19167,844
22.20000,818
22.20833,792
22.21667,764
22.22500,736
22.23333,708
22.24167,680
22.25000,651
22.25833,623
22.26667,595
22.27500,567
22.28333,539
22.29167,512
22.30000,485
22.30833,459
22.31667,433
22.32500,408
22.33333,384
22.34167,361
22.35000,339
22.35833,318
22.36667,297
22.37500,277
22.38333,259
22.39167,241
22.40000,224
22.40833,208
22.41667,193
22.42500,178
22.43333,165
22.44167,152
22.45000,140
22.45833,129
22.46667,118
22.47500,108
22.48333,99
22.49167,90
22.50000,82
22.50833,75
22.51667,68
22.52500,61
22.53333,55
22.54167,50
22.55000,45
22.55833,41
22.56667,36
22.57500,32
22.58333,29
22.59167,26
22.60000,23
22.60833,20
22.61667,17
22.62500,14
22.63333,12
22.64167,10
22.65000,8
22.65833,7
22.66667,5
22.67500,4
22.68333,3
22.69167,1
22.70000,0
22.70833,-1
22.71667,-2
22.72500,-3
22.73333,-3
22.74167,-4
22.75000,-4
22.75833,-5
22.76667,-6
22.77500,-6
22.78333,-7
22.79167,-7
22.80000,-8
22.80833,-8
22.81667,-8
22.82500,-9
22.83333,-9
22.84167,-9
22.85000,-9
22.85833,-10
22.86667,-10
22.87500,-10
22.88333,-11
22.89167,-11
22.90000,-11
22.90833,-11
22.91667,-11
22.92500,-11
22.93333,-11
22.94167,-12
22.95000,-12
22.95833,-12
22.96667,-12
22.97500,-12
22.98333,-12
22.99167,-12
23.00000,-12
23.00833,-12
23.01667,-13
23.02500,-13
23.03333,-13
23.04167,-13
23.05000,-13
23.05833,-13
23.06667,-13
23.07500,-13
23.08333,-13
23.09167,-13
23.10000,-13
23.10833,-13
23.11667,-13
23.12500,-13
23.13333,-14
23.14167,-14
23.15000,-14
23.15833,-14
23.16667,-14
23.17500,-14
23.18333,-14
23.19167,-14
23.20000,-14
23.20833,-15
23.21667,-15
23.22500,-15
23.23333,-15
23.24167,-15
23.25000,-15
23.25833,-15
23.26667,-15
23.27500,-15
23.28333,-15
23.29167,-15
23.30000,-15
23.30833,-15
23.31667,-15
23.32500,-15
23.33333,-15
23.34167,-15
23.35000,-15
23.35833,-15
23.36667,-15
23.37500,-15
23.38333,-15
23.39167,-15
23.40000,-15
23.40833,-15
23.41667,-15
23.42500,-16
23.43333,-16
23.44167,-16
23.45000,-16
23.45833,-16
23.46667,-16
23.47500,-16
23.48333,-16
23.49167,-16
23.50000,-16
23.50833,-16
23.51667,-16
23.52500,-15
23.53333,-15
23.54167,-15
23.55000,-15
23.55833,-15
23.56667,-15
23.57500,-15
23.58333,-15
23.59167,-15
23.60000,-15
23.60833,-16
23.61667,-16
23.62500,-16
23.63333,-17
23.64167,-17
23.65000,-17
23.65833,-17
23.66667,-17
23.67500,-17
23.68333,-17
23.69167,-16
23.70000,-16
23.70833,-16
23.71667,-16
23.72500,-16
23.73333,-17
23.74167,-17
23.75000,-17
23.75833,-16
23.76667,-16
23.77500,-16
23.78333,-16
23.79167,-16
23.80000,-16
23.80833,-16
23.81667,-16
23.82500,-16
23.83333,-16
23.84167,-16
23.85000,-16
23.85833,-16
23.86667,-17
23.87500,-17
23.88333,-17
23.89167,-17
23.90000,-17
23.90833,-17
23.91667,-17
23.92500,-17
23.93333,-17
23.94167,-17
23.95000,-17
23.95833,-17
23.96667,-17
23.97500,-16
23.98333,-16
23.99167,-16
24.00000,-16
24.00833,-16
24.01667,-16
24.02500,-16
24.03333,-16
24.04167,-16
24.05000,-16
24.05833,-16
24.06667,-16
24.07500,-16
24.08333,-16
24.09167,-16
24.10000,-16
24.10833,-16
24.11667,-16
24.12500,-16
24.13333,-16
24.14167,-16
24.15000,-16
24.15833,-16
24.16667,-16
24.17500,-16
24.18333,-16
24.19167,-16
24.20000,-16
24.20833,-16
24.21667,-17
24.22500,-17
24.23333,-17
24.24167,-16
24.25000,-16
24.25833,-16
24.26667,-15
24.27500,-15
24.28333,-15
24.29167,-16
24.30000,-16
24.30833,-16
24.31667,-16
24.32500,-16
24.33333,-16
24.34167,-16
24.35000,-16
24.35833,-15
24.36667,-15
24.37500,-15
24.38333,-15
24.39167,-15
24.40000,-14
24.40833,-14
24.41667,-14
24.42500,-14
24.43333,-13
24.44167,-13
24.45000,-12
24.45833,-12
24.46667,-12
24.47500,-11
24.48333,-10
24.49167,-9
24.50000,-8
24.50833,-7
24.51667,-6
24.52500,-4
24.53333,-3
24.54167,-1
24.55000,1
24.55833,3
24.56667,5
24.57500,8
24.58333,10
24.59167,13
24.60000,16
24.60833,19
24.61667,22
24.62500,26
24.63333,30
24.64167,34
24.65000,39
24.65833,43
24.66667,48
24.67500,54
24.68333,60
24.69167,67
24.70000,74
24.70833,82
24.71667,89
24.72500,97
24.73333,105
24.74167,114
24.75000,123
24.75833,133
24.76667,142
24.77500,152
24.78333,162
24.79167,172
24.80000,183
24.80833,194
24.81667,205
24.82500,216
24.83333,227
24.84167,238
24.85000,249
24.85833,260
24.86667,271
24.87500,282
24.88333,292
24.89167,303
24.90000,313
24.90833,323
24.91667,332
24.92500,340
24.93333,348
24.94167,355
24.95000,361
24.95833,367
24.96667,373
24.97500,378
24.98333,382
24.99167,385
25.00000,388
25.00833,390
25.01667,390
25.02500,391
25.03333,390
25.04167,389
25.05000,387
25.05833,384
25.06667,380
25.07500,376
25.08333,371
25.09167,365
25.10000,359
25.10833,351
25.11667,344
25.12500,336
25.13333,328
25.14167,319
25.15000,310
25.15833,301
25.16667,291
25.17500,282
25.18333,272
25.19167,261
25.20000,251
25.20833,240
25.21667,229
25.22500,219
25.23333,208
25.24167,198
25.25000,189
25.25833,179
25.26667,170
25.27500,160
25.28333,151
25.29167,142
25.30000,134
25.30833,125
25.31667,117
25.32500,109
25.33333,101
25.34167,94
25.35000,87
25.35833,80
25.36667,73
25.37500,68
25.38333,62
25.39167,57
25.40000,52
25.40833,47
25.41667,42
25.42500,38
25.43333,33
25.44167,29
25.45000,26
25.45833,23
25.46667,20
25.47500,17
25.48333,15
25.49167,12
25.50000,10
25.50833,8
25.51667,6
25.52500,4
25.53333,2
25.54167,0
25.55000,-1
25.55833,-3
25.56667,-5
25.57500,-6
25.58333,-7
25.59167,-8
25.60000,-9
25.60833,-10
25.61667,-11
25.62500,-11
25.63333,-12
25.64167,-13
25.65000,-13
25.65833,-13
25.66667,-14
25.67500,-14
25.68333,-15
25.69167,-15
25.70000,-15
25.70833,-16
25.71667,-16
25.72500,-16
25.73333,-16
25.74167,-16
25.75000,-16
25.75833,-17
25.76667,-17
25.77500,-17
25.78333,-17
25.79167,-17
25.80000,-17
25.80833,-17
25.81667,-17
25.82500,-17
25.83333,-18
25.84167,-18
25.85000,-18
25.85833,-18
25.86667,-18
25.87500,-18
25.88333,-19
25.89167,-19
25.90000,-19
25.90833,-19
25.91667,-19
25.92500,-19
25.93333,-19
25.94167,-19
25.95000,-19
25.95833,-19
25.96667,-19
25.97500,-19
25.98333,-19
25.99167,-19
26.00000,-19
26.00833,-19
26.01667,-19
26.02500,-20
26.03333,-20
26.04167,-20
26.05000,-20
26.05833,-20
26.06667,-20
26.07500,-20
26.08333,-20
26.09167,-20
26.10000,-20
26.10833,-21
26.11667,-21
26.12500,-21
26.13333,-21
26.14167,-21
26.15000,-21
26.15833,-21
26.16667,-20
26.17500,-20
26.18333,-20
26.19167,-20
26.20000,-20
26.20833,-20
26.21667,-20
26.22500,-20
26.23333,-20
26.24167,-20
26.25000,-20
26.25833,-20
26.26667,-20
26.27500,-20
26.28333,-20
26.29167,-21
26.30000,-21
26.30833,-21
26.31667,-20
26.32500,-20
26.33333,-21
26.34167,-21
26.35000,-21
26.35833,-21
26.36667,-20
26.37500,-21
26.38333,-21
26.39167,-21
26.40000,-21
26.40833,-21
26.41667,-21
26.42500,-21
26.43333,-21
26.44167,-21
26.45000,-21
26.45833,-21
26.46667,-21
26.47500,-22
26.48333,-22
26.49167,-22
26.50000,-22
26.50833,-22
26.51667,-22
26.52500,-21
26.53333,-21
26.54167,-22
26.55000,-22
26.55833,-22
26.56667,-22
26.57500,-22
26.58333,-22
26.59167,-23
26.60000,-22
26.60833,-22
26.61667,-22
26.62500,-23
26.63333,-23
26.64167,-23
26.65000,-23
26.65833,-23
26.66667,-22
26.67500,-22
26.68333,-22
26.69167,-22
26.70000,-21
26.70833,-21
26.71667,-21
26.72500,-22
26.73333,-22
26.74167,-22
26.75000,-22
26.75833,-22
26.76667,-22
26.77500,-22
26.78333,-22
26.79167,-22
26.80000,-22
26.80833,-22
26.81667,-22
26.82500,-22
26.83333,-22
26.84167,-22
26.85000,-22
26.85833,-22
26.86667,-22
26.87500,-22
26.88333,-21
26.89167,-22
26.90000,-22
26.90833,-22
26.91667,-22
26.92500,-22
26.93333,-22
26.94167,-23
26.95000,-23
26.95833,-23
26.96667,-22
26.97500,-22
26.98333,-22
26.99167,-22
27.00000,-22
27.00833,-22
27.01667,-23
27.02500,-23
27.03333,-23
27.04167,-23
27.05000,-23
27.05833,-23
27.06667,-23
27.07500,-23
27.08333,-22
27.09167,-22
27.10000,-22
27.10833,-22
27.11667,-22
27.12500,-22
27.13333,-22
27.14167,-22
27.15000,-22
27.15833,-23
27.16667,-23
27.17500,-23
27.18333,-23
27.19167,-23
27.20000,-23
27.20833,-23
27.21667,-22
27.22500,-22
27.23333,-22
27.24167,-22
27.25000,-22
27.25833,-22
27.26667,-23
27.27500,-23
27.28333,-23
27.29167,-22
27.30000,-22
27.30833,-22
27.31667,-22
27.32500,-22
27.33333,-22
27.34167,-22
27.35000,-22
27.35833,-22
27.36667,-23
27.37500,-23
27.38333,-23
27.39167,-23
27.40000,-23
27.40833,-23
27.41667,-23
27.42500,-23
27.43333,-23
27.44167,-23
27.45000,-23
27.45833,-23
27.46667,-23
27.47500,-24
27.48333,-23
27.49167,-23
27.50000,-24
27.50833,-24
27.51667,-24
27.52500,-23
27.53333,-23
27.54167,-23
27.55000,-23
27.55833,-23
27.56667,-23
27.57500,-23
27.58333,-23
27.59167,-23
27.60000,-23
27.60833,-23
27.61667,-23
27.62500,-23
27.63333,-23
27.64167,-24
27.65000,-24
27.65833,-24
27.66667,-24
27.67500,-24
27.68333,-24
27.69167,-24
27.70000,-25
27.70833,-25
27.71667,-25
27.72500,-25
27.73333,-25
27.74167,-25
27.75000,-25
27.75833,-25
27.76667,-25
27.77500,-25
27.78333,-25
27.79167,-25
27.80000,-25
27.80833,-26
27.81667,-26
27.82500,-26
27.83333,-27
27.84167,-27
27.85000,-28
27.85833,-29
27.86667,-29
27.87500,-29
27.88333,-29
27.89167,-29
27.90000,-30
27.90833,-31
27.91667,-31
27.92500,-32
27.93333,-33
27.94167,-34
27.95000,-34
27.95833,-35
27.96667,-36
27.97500,-37
27.98333,-38
27.99167,-39
28.00000,-40
28.00833,-41
28.01667,-42
28.02500,-44
28.03333,-45
28.04167,-47
28.05000,-48
28.05833,-50
28.06667,-52
28.07500,-54
28.08333,-56
28.09167,-58
28.10000,-60
28.10833,-63
28.11667,-65
28.12500,-67
28.13333,-70
28.14167,-72
28.15000,-75
28.15833,-78
28.16667,-81
28.17500,-84
28.18333,-86
28.19167,-89
28.20000,-93
28.20833,-96
28.21667,-99
28.22500,-102
28.23333,-106
28.24167,-110
28.25000,-113
28.25833,-117
28.26667,-121
28.27500,-124
28.28333,-128
28.29167,-132
28.30000,-135
28.30833,-138
28.31667,-142
28.32500,-145
28.33333,-148
28.34167,-152
28.35000,-155
28.35833,-158
28.36667,-162
28.37500,-165
28.38333,-168
28.39167,-171
28.40000,-174
28.40833,-176
28.41667,-178
28.42500,-180
28.43333,-182
28.44167,-184
28.45000,-186
28.45833,-187
28.46667,-189
28.47500,-190
28.48333,-191
28.49167,-192
28.50000,-193
28.50833,-193
28.51667,-194
28.52500,-194
28.53333,-194
28.54167,-193
28.55000,-193
28.55833,-192
28.56667,-191
28.57500,-190
28.58333,-189
28.59167,-187
28.60000,-186
28.60833,-184
28.61667,-183
28.62500,-181
28.63333,-179
28.64167,-176
28.65000,-174
28.65833,-172
28.66667,-169
28.67500,-167
28.68333,-164
28.69167,-161
28.70000,-158
28.70833,-155
28.71667,-152
28.72500,-149
28.73333,-147
28.74167,-144
28.75000,-141
28.75833,-138
28.76667,-135
28.77500,-132
28.78333,-129
28.79167,-127
28.80000,-124
28.80833,-121
28.81667,-118
28.82500,-115
28.83333,-112
28.84167,-109
28.85000,-106
28.85833,-103
28.86667,-100
28.87500,-98
28.88333,-95
28.89167,-92
28.90000,-90
28.90833,-88
28.91667,-86
28.92500,-84
28.93333,-82
28.94167,-80
28.95000,-78
28.95833,-76
28.96667,-74
28.97500,-72
28.98333,-70
28.99167,-68
29.00000,-66
29.00833,-65
29.01667,-63
29.02500,-62
29.03333,-61
29.04167,-60
29.05000,-59
29.05833,-58
29.06667,-57
29.07500,-56
29.08333,-55
29.09167,-54
29.10000,-53
29.10833,-52
29.11667,-50
29.12500,-49
29.13333,-48
29.14167,-48
29.15000,-47
29.15833,-47
29.16667,-46
29.17500,-46
29.18333,-45
29.19167,-45
29.20000,-44
29.20833,-43
29.21667,-43
29.22500,-42
29.23333,-42
29.24167,-42
29.25000,-41
29.25833,-41
29.26667,-41
29.27500,-41
29.28333,-40
29.29167,-40
29.30000,-40
29.30833,-40
29.31667,-39
29.32500,-39
29.33333,-38
29.34167,-38
29.35000,-38
29.35833,-38
29.36667,-38
29.37500,-38
29.38333,-38
29.39167,-38
29.40000,-38
29.40833,-38
29.41667,-37
29.42500,-37
29.43333,-37
29.44167,-37
29.45000,-37
29.45833,-37
29.46667,-36
29.47500,-36
29.48333,-37
29.49167,-37
29.50000,-37
29.50833,-37
29.51667,-37
29.52500,-37
29.53333,-37
29.54167,-37
29.55000,-37
29.55833,-38
29.56667,-38
29.57500,-38
29.58333,-38
29.59167,-38
29.60000,-38
29.60833,-39
29.61667,-39
29.62500,-39
29.63333,-40
29.64167,-40
29.65000,-40
29.65833,-40
29.66667,-41
29.67500,-41
29.68333,-41
29.69167,-41
29.70000,-42
29.70833,-42
29.71667,-43
29.72500,-43
29.73333,-44
29.74167,-45
29.75000,-45
29.75833,-46
29.76667,-47
29.77500,-47
29.78333,-47
29.79167,-48
29.80000,-49
29.80833,-49
29.81667,-50
29.82500,-51
29.83333,-51
29.84167,-52
29.85000,-53
29.85833,-54
29.86667,-54
29.87500,-55
29.88333,-57
29.89167,-58
29.90000,-59
29.90833,-59
29.91667,-60
29.92500,-61
29.93333,-62
29.94167,-63
29.95000,-64
29.95833,-66
29.96667,-67
29.97500,-68
29.98333,-69
29.99167,-70
30.00000,-71
30.00833,-72
30.01667,-73
30.02500,-74
30.03333,-75
30.04167,-76
30.05000,-78
30.05833,-79
30.06667,-81
30.07500,-82
30.08333,-83
30.09167,-83
30.10000,-84
30.10833,-86
30.11667,-87
30.12500,-88
30.13333,-89
30.14167,-91
30.15000,-91
30.15833,-92
30.16667,-93
30.17500,-93
30.18333,-94
30.19167,-95
30.20000,-95
30.20833,-96
30.21667,-96
30.22500,-97
30.23333,-97
30.24167,-98
30.25000,-98
30.25833,-98
30.26667,-98
30.27500,-99
30.28333,-99
30.29167,-99
30.30000,-99
30.30833,-98
30.31667,-98
30.32500,-97
30.33333,-96
30.34167,-96
30.35000,-95
30.35833,-95
30.36667,-95
30.37500,-94
30.38333,-94
30.39167,-93
30.40000,-91
30.40833,-90
30.41667,-89
30.42500,-88
30.43333,-88
30.44167,-87
30.45000,-87
30.45833,-86
30.46667,-85
30.47500,-84
30.48333,-83
30.49167,-82
30.50000,-80
30.50833,-79
30.51667,-78
30.52500,-77
30.53333,-76
30.54167,-75
30.55000,-74
30.55833,-73
30.56667,-72
30.57500,-70
30.58333,-69
30.59167,-68
30.60000,-67
30.60833,-66
30.61667,-65
30.62500,-64
30.63333,-63
30.64167,-62
30.65000,-62
30.65833,-61
30.66667,-60
30.67500,-59
30.68333,-58
30.69167,-58
30.70000,-57
30.70833,-56
30.71667,-55
30.72500,-54
30.73333,-53
30.74167,-52
30.75000,-51
30.75833,-51
30.76667,-50
30.77500,-50
30.78333,-49
30.79167,-49
30.80000,-48
30.80833,-48
30.81667,-47
30.82500,-46
30.83333,-46
30.84167,-45
30.85000,-45
30.85833,-44
30.86667,-44
30.87500,-44
30.88333,-43
30.89167,-43
30.90000,-42
30.90833,-42
30.91667,-42
30.92500,-42
30.93333,-42
30.94167,-42
30.95000,-42
30.95833,-42
30.96667,-42
30.97500,-41
30.98333,-41
30.99167,-41
31.00000,-41
31.00833,-41
31.01667,-41
31.02500,-41
31.03333,-41
31.04167,-40
31.05000,-40
31.05833,-39
31.06667,-39
31.07500,-39
31.08333,-38
31.09167,-38
31.10000,-38
31.10833,-39
31.11667,-39
31.12500,-39
31.13333,-39
31.14167,-39
31.15000,-39
31.15833,-38
31.16667,-38
31.17500,-38
31.18333,-38
31.19167,-38
31.20000,-38
31.20833,-38
31.21667,-38
31.22500,-37
31.23333,-37
31.24167,-37
31.25000,-37
31.25833,-38
31.26667,-38
31.27500,-37
31.28333,-37
31.29167,-37
31.30000,-37
31.30833,-37
31.31667,-37
31.32500,-37
31.33333,-37
31.34167,-37
31.35000,-36
31.35833,-36
31.36667,-36
31.37500,-36
31.38333,-37
31.39167,-36
31.40000,-36
31.40833,-35
31.41667,-35
31.42500,-35
31.43333,-35
31.44167,-35
31.45000,-35
31.45833,-35
31.46667,-35
31.47500,-35
31.48333,-35
31.49167,-34
31.50000,-34
31.50833,-34
31.51667,-34
31.52500,-34
31.53333,-34
31.54167,-34
31.55000,-34
31.55833,-34
31.56667,-34
31.57500,-34
31.58333,-34
31.59167,-34
31.60000,-34
31.60833,-33
31.61667,-33
31.62500,-33
31.63333,-33
31.64167,-34
31.65000,-34
31.65833,-34
31.66667,-34
31.67500,-34
31.68333,-34
31.69167,-34
31.70000,-34
31.70833,-34
31.71667,-34
31.72500,-33
31.73333,-33
31.74167,-33
31.75000,-33
31.75833,-34
31.76667,-34
31.77500,-34
31.78333,-34
31.79167,-34
31.80000,-34
31.80833,-34
31.81667,-34
31.82500,-35
31.83333,-35
31.84167,-34
31.85000,-34
31.85833,-34
31.86667,-34
31.87500,-33
31.88333,-33
31.89167,-33
31.90000,-33
31.90833,-33
31.91667,-33
31.92500,-33
31.93333,-33
31.94167,-33
31.95000,-33
31.95833,-33
31.96667,-33
31.97500,-32
31.98333,-32
31.99167,-32
32.00000,-32
32.00833,-32
32.01667,-32
32.02500,-32
32.03333,-32
32.04167,-32
32.05000,-33
32.05833,-33
32.06667,-33
32.07500,-33
32.08333,-33
32.09167,-33
32.10000,-32
32.10833,-32
32.11667,-32
32.12500,-32
32.13333,-32
32.14167,-32
32.15000,-33
32.15833,-33
32.16667,-33
32.17500,-33
32.18333,-33
32.19167,-33
32.20000,-33
32.20833,-34
32.21667,-34
32.22500,-34
32.23333,-33
32.24167,-33
32.25000,-33
32.25833,-33
32.26667,-33
32.27500,-33
32.28333,-33
32.29167,-33
32.30000,-33
32.30833,-33
32.31667,-33
32.32500,-33
32.33333,-33
32.34167,-33
32.35000,-33
32.35833,-33
32.36667,-33
32.37500,-33
32.38333,-33
32.39167,-33
32.40000,-32
32.40833,-32
32.41667,-32
32.42500,-32
32.43333,-32
32.44167,-33
32.45000,-33
32.45833,-33
32.46667,-33
32.47500,-33
32.48333,-32
32.49167,-32
32.50000,-32
32.50833,-32
32.51667,-32
32.52500,-32
32.53333,-32
32.54167,-32
32.55000,-33
32.55833,-33
32.56667,-33
32.57500,-33
32.58333,-33
32.59167,-33
32.60000,-33
32.60833,-33
32.61667,-33
32.62500,-32
32.63333,-33
32.64167,-33
32.65000,-33
32.65833,-33
32.66667,-33
32.67500,-32
32.68333,-32
32.69167,-33
32.70000,-33
32.70833,-33
32.71667,-33
32.72500,-33
32.73333,-33
32.74167,-33
32.75000,-33
32.75833,-33
32.76667,-33
32.77500,-33
32.78333,-33
32.79167,-33
32.80000,-33
32.80833,-33
32.81667,-32
32.82500,-32
32.83333,-32
32.84167,-32
32.85000,-32
32.85833,-32
32.86667,-32
32.87500,-32
32.88333,-32
32.89167,-32
32.90000,-32
32.90833,-32
32.91667,-32
32.92500,-32
32.93333,-32
32.94167,-32
32.95000,-32
32.95833,-32
32.96667,-32
32.97500,-32
32.98333,-32
32.99167,-32
33.00000,-32
33.00833,-32
33.01667,-32
33.02500,-32
33.03333,-32
33.04167,-32
33.05000,-32
33.05833,-32
33.06667,-32
33.07500,-32
33.08333,-32
33.09167,-32
33.10000,-32
33.10833,-32
33.11667,-32
33.12500,-32
33.13333,-32
33.14167,-32
33.15000,-32
33.15833,-32
33.16667,-32
33.17500,-32
33.18333,-32
33.19167,-32
33.20000,-32
33.20833,-32
33.21667,-32
33.22500,-32
33.23333,-32
33.24167,-32
33.25000,-32
33.25833,-32
33.26667,-32
33.27500,-32
33.28333,-33
33.29167,-33
33.30000,-33
33.30833,-33
33.31667,-32
33.32500,-32
33.33333,-32
33.34167,-32
33.35000,-32
33.35833,-32
33.36667,-32
33.37500,-32
33.38333,-32
33.39167,-32
33.40000,-32
33.40833,-32
33.41667,-32
33.42500,-32
33.43333,-32
33.44167,-32
33.45000,-32
33.45833,-32
33.46667,-32
33.47500,-32
33.48333,-32
33.49167,-32
33.50000,-32
33.50833,-32
33.51667,-32
33.52500,-33
33.53333,-33
33.54167,-33
33.55000,-33
33.55833,-33
33.56667,-33
33.57500,-33
33.58333,-33
33.59167,-33
33.60000,-33
33.60833,-33
33.61667,-33
33.62500,-33
33.63333,-33
33.64167,-33
33.65000,-33
33.65833,-33
33.66667,-33
33.67500,-34
33.68333,-34
33.69167,-34
33.70000,-34
33.70833,-34
33.71667,-34
33.72500,-34
33.73333,-33
33.74167,-33
33.75000,-33
33.75833,-33
33.76667,-33
33.77500,-33
33.78333,-33
33.79167,-33
33.80000,-33
33.80833,-33
33.81667,-33
33.82500,-34
33.83333,-34
33.84167,-34
33.85000,-35
33.85833,-35
33.86667,-35
33.87500,-35
33.88333,-34
33.89167,-34
33.90000,-34
33.90833,-35
33.91667,-35
33.92500,-35
33.93333,-34
33.94167,-34
33.95000,-34
33.95833,-34
33.96667,-34
33.97500,-34
33.98333,-34
33.99167,-34
34.00000,-34
34.00833,-34
34.01667,-34
34.02500,-34
34.03333,-34
34.04167,-33
34.05000,-33
34.05833,-33
34.06667,-32
34.07500,-32
34.08333,-33
34.09167,-33
34.10000,-33
34.10833,-34
34.11667,-34
34.12500,-34
34.13333,-34
34.14167,-34
34.15000,-34
34.15833,-34
34.16667,-34
34.17500,-34
34.18333,-34
34.19167,-34
34.20000,-34
34.20833,-34
34.21667,-34
34.22500,-34
34.23333,-34
34.24167,-35
34.25000,-35
34.25833,-35
34.26667,-35
34.27500,-35
34.28333,-35
34.29167,-34
34.30000,-34
34.30833,-34
34.31667,-34
34.32500,-34
34.33333,-34
34.34167,-34
34.35000,-34
34.35833,-34
34.36667,-34
34.37500,-35
34.38333,-35
34.39167,-35
34.40000,-34
34.40833,-34
34.41667,-35
34.42500,-35
34.43333,-35
34.44167,-36
34.45000,-36
34.45833,-35
34.46667,-35
34.47500,-35
34.48333,-35
34.49167,-36
34.50000,-36
34.50833,-36
34.51667,-35
34.52500,-35
34.53333,-35
34.54167,-35
34.55000,-35
34.55833,-34
34.56667,-34
34.57500,-34
34.58333,-34
34.59167,-34
34.60000,-34
34.60833,-34
34.61667,-34
34.62500,-34
34.63333,-34
34.64167,-34
34.65000,-34
34.65833,-35
34.66667,-35
34.67500,-35
34.68333,-35
34.69167,-35
34.70000,-35
34.70833,-35
34.71667,-35
34.72500,-35
34.73333,-35
34.74167,-35
34.75000,-35
34.75833,-35
34.76667,-35
34.77500,-35
34.78333,-35
34.79167,-35
34.80000,-35
34.80833,-35
34.81667,-34
34.82500,-34
34.83333,-34
34.84167,-34
34.85000,-35
34.85833,-35
34.86667,-35
34.87500,-35
34.88333,-34
34.89167,-34
34.90000,-34
34.90833,-34
34.91667,-34
34.92500,-34
34.93333,-35
34.94167,-35
34.95000,-35
34.95833,-35
34.96667,-35
34.97500,-35
34.98333,-35
34.99167,-35
35.00000,-35
35.00833,-35
35.01667,-34
35.02500,-34
35.03333,-34
35.04167,-34
35.05000,-35
35.05833,-35
35.06667,-35
35.07500,-35
35.08333,-35
35.09167,-35
35.10000,-35
35.10833,-35
35.11667,-35
35.12500,-35
35.13333,-35
35.14167,-35
35.15000,-35
35.15833,-35
35.16667,-35
35.17500,-35
35.18333,-35
35.19167,-35
35.20000,-35
35.20833,-35
35.21667,-35
35.22500,-35
35.23333,-35
35.24167,-35
35.25000,-35
35.25833,-35
35.26667,-35
35.27500,-35
35.28333,-35
35.29167,-35
35.30000,-35
35.30833,-34
35.31667,-34
35.32500,-34
35.33333,-35
35.34167,-35
35.35000,-35
35.35833,-35
35.36667,-35
35.37500,-35
35.38333,-35
35.39167,-35
35.40000,-35
35.40833,-35
35.41667,-35
35.42500,-35
35.43333,-35
35.44167,-35
35.45000,-35
35.45833,-35
35.46667,-35
35.47500,-35
35.48333,-35
35.49167,-36
35.50000,-36
35.50833,-36
35.51667,-35
35.52500,-35
35.53333,-35
35.54167,-36
35.55000,-36
35.55833,-36
35.56667,-35
35.57500,-35
35.58333,-35
35.59167,-35
35.60000,-35
35.60833,-35
35.61667,-35
35.62500,-35
35.63333,-35
35.64167,-34
35.65000,-34
35.65833,-34
35.66667,-34
35.67500,-35
35.68333,-35
35.69167,-35
35.70000,-35
35.70833,-35
35.71667,-35
35.72500,-35
35.73333,-35
35.74167,-34
35.75000,-34
35.75833,-34
35.76667,-34
35.77500,-34
35.78333,-34
35.79167,-34
35.80000,-34
35.80833,-34
35.81667,-34
35.82500,-34
35.83333,-34
35.84167,-34
35.85000,-34
35.85833,-34
35.86667,-34
35.87500,-34
35.88333,-34
35.89167,-34
35.90000,-34
35.90833,-34
35.91667,-34
35.92500,-34
35.93333,-34
35.94167,-35
35.95000,-35
35.95833,-34
35.96667,-34
35.97500,-34
35.98333,-34
35.99167,-34
36.00000,-35
36.00833,-35
36.01667,-35
36.02500,-35
36.03333,-35
36.04167,-35
36.05000,-35
36.05833,-35
36.06667,-35
36.07500,-35
36.08333,-35
36.09167,-35
36.10000,-35
36.10833,-35
36.11667,-35
36.12500,-35
36.13333,-35
36.14167,-35
36.15000,-35
36.15833,-35
36.16667,-34
36.17500,-34
36.18333,-34
36.19167,-34
36.20000,-34
36.20833,-34
36.21667,-34
36.22500,-34
36.23333,-35
36.24167,-35
36.25000,-35
36.25833,-36
36.26667,-36
36.27500,-36
36.28333,-35
36.29167,-35
36.30000,-35
36.30833,-35
36.31667,-35
36.32500,-35
36.33333,-35
36.34167,-35
36.35000,-35
36.35833,-35
36.36667,-36
36.37500,-36
36.38333,-37
36.39167,-37
36.40000,-37
36.40833,-37
36.41667,-37
36.42500,-37
36.43333,-37
36.44167,-37
36.45000,-36
36.45833,-36
36.46667,-36
36.47500,-36
36.48333,-36
36.49167,-36
36.50000,-35
36.50833,-35
36.51667,-35
36.52500,-35
36.53333,-36
36.54167,-36
36.55000,-36
36.55833,-36
36.56667,-36
36.57500,-36
36.58333,-36
36.59167,-36
36.60000,-36
36.60833,-36
36.61667,-36
36.62500,-36
36.63333,-36
36.64167,-35
36.65000,-35
36.65833,-35
36.66667,-35
36.67500,-35
36.68333,-35
36.69167,-35
36.70000,-35
36.70833,-35
36.71667,-35
36.72500,-36
36.73333,-36
36.74167,-36
36.75000,-36
36.75833,-36
36.76667,-36
36.77500,-36
36.78333,-36
36.79167,-36
36.80000,-36
36.80833,-36
36.81667,-36
36.82500,-36
36.83333,-36
36.84167,-35
36.85000,-35
36.85833,-35
36.86667,-35
36.87500,-35
36.88333,-35
36.89167,-35
36.90000,-35
36.90833,-35
36.91667,-35
36.92500,-35
36.93333,-35
36.94167,-35
36.95000,-36
36.95833,-36
36.96667,-36
36.97500,-36
36.98333,-36
36.99167,-36
37.00000,-35
37.00833,-35
37.01667,-35
37.02500,-36
37.03333,-36
37.04167,-36
37.05000,-36
37.05833,-35
37.06667,-35
37.07500,-36
37.08333,-36
37.09167,-36
37.10000,-36
37.10833,-35
37.11667,-35
37.12500,-35
37.13333,-35
37.14167,-35
37.15000,-35
37.15833,-36
37.16667,-36
37.17500,-36
37.18333,-36
37.19167,-36
37.20000,-36
37.20833,-36
37.21667,-36
37.22500,-36
37.23333,-36
37.24167,-36
37.25000,-36
37.25833,-36
37.26667,-36
37.27500,-35
37.28333,-35
37.29167,-35
37.30000,-35
37.30833,-35
37.31667,-35
37.32500,-35
37.33333,-35
37.34167,-35
37.35000,-35
37.35833,-35
37.36667,-35
37.37500,-35
37.38333,-36
37.39167,-36
37.40000,-36
37.40833,-36
37.41667,-36
37.42500,-36
37.43333,-36
37.44167,-36
37.45000,-37
37.45833,-37
37.46667,-38
37.47500,-38
37.48333,-38
37.49167,-37
37.50000,-37
37.50833,-37
37.51667,-36
37.52500,-36
37.53333,-37
37.54167,-37
37.55000,-37
37.55833,-37
37.56667,-37
37.57500,-37
37.58333,-37
37.59167,-37
37.60000,-37
37.60833,-37
37.61667,-37
37.62500,-37
37.63333,-37
37.64167,-37
37.65000,-37
37.65833,-37
37.66667,-37
37.67500,-36
37.68333,-36
37.69167,-37
37.70000,-37
37.70833,-36
37.71667,-36
37.72500,-36
37.73333,-36
37.74167,-36
37.75000,-35
37.75833,-35
37.76667,-35
37.77500,-36
37.78333,-36
37.79167,-36
37.80000,-36
37.80833,-36
37.81667,-36
37.82500,-36
37.83333,-37
37.84167,-37
37.85000,-37
37.85833,-37
37.86667,-37
37.87500,-37
37.88333,-37
37.89167,-37
37.90000,-37
37.90833,-37
37.91667,-37
37.92500,-37
37.93333,-37
37.94167,-37
37.95000,-37
37.95833,-37
37.96667,-37
37.97500,-37
37.98333,-36
37.99167,-36
38.00000,-36
38.00833,-36
38.01667,-36
38.02500,-36
38.03333,-36
38.04167,-36
38.05000,-36
38.05833,-36
38.06667,-36
38.07500,-36
38.08333,-36
38.09167,-36
38.10000,-36
38.10833,-36
38.11667,-36
38.12500,-36
38.13333,-36
38.14167,-36
38.15000,-36
38.15833,-36
38.16667,-35
38.17500,-35
38.18333,-35
38.19167,-35
38.20000,-35
38.20833,-35
38.21667,-35
38.22500,-35
38.23333,-35
38.24167,-35
38.25000,-35
38.25833,-35
38.26667,-35
38.27500,-35
38.28333,-36
38.29167,-36
38.30000,-36
38.30833,-36
38.31667,-36
38.32500,-36
38.33333,-36
38.34167,-36
38.35000,-36
38.35833,-36
38.36667,-35
38.37500,-35
38.38333,-35
38.39167,-35
38.40000,-35
38.40833,-34
38.41667,-34
38.42500,-34
38.43333,-34
38.44167,-34
38.45000,-34
38.45833,-34
38.46667,-34
38.47500,-34
38.48333,-34
38.49167,-34
38.50000,-34
38.50833,-33
38.51667,-33
38.52500,-33
38.53333,-33
38.54167,-33
38.55000,-34
38.55833,-34
38.56667,-34
38.57500,-34
38.58333,-34
38.59167,-34
38.60000,-34
38.60833,-33
38.61667,-34
38.62500,-34
38.63333,-34
38.64167,-34
38.65000,-34
38.65833,-34
38.66667,-34
38.67500,-34
38.68333,-34
38.69167,-34
38.70000,-34
38.70833,-34
38.71667,-34
38.72500,-34
38.73333,-34
38.74167,-34
38.75000,-34
38.75833,-34
38.76667,-34
38.77500,-34
38.78333,-33
38.79167,-33
38.80000,-33
38.80833,-34
38.81667,-34
38.82500,-34
38.83333,-35
38.84167,-35
38.85000,-35
38.85833,-35
38.86667,-35
38.87500,-35
38.88333,-35
38.89167,-35
38.90000,-35
38.90833,-35
38.91667,-35
38.92500,-34
38.93333,-34
38.94167,-34
38.95000,-34
38.95833,-35
38.96667,-35
38.97500,-35
38.98333,-35
38.99167,-35
39.00000,-36
39.00833,-36
39.01667,-36
39.02500,-36
39.03333,-35
39.04167,-35
39.05000,-35
39.05833,-35
39.06667,-35
39.07500,-35
39.08333,-35
39.09167,-35
39.10000,-35
39.10833,-35
39.11667,-35
39.12500,-35
39.13333,-35
39.14167,-35
39.15000,-35
39.15833,-35
39.16667,-36
39.17500,-36
39.18333,-35
39.19167,-35
39.20000,-35
39.20833,-36
39.21667,-36
39.22500,-36
39.23333,-37
39.24167,-37
39.25000,-37
39.25833,-36
39.26667,-36
39.27500,-36
39.28333,-36
39.29167,-36
39.30000,-37
39.30833,-37
39.31667,-37
39.32500,-38
39.33333,-38
39.34167,-38
39.35000,-38
39.35833,-37
39.36667,-37
39.37500,-37
39.38333,-37
39.39167,-36
39.40000,-36
39.40833,-36
39.41667,-36
39.42500,-36
39.43333,-36
39.44167,-36
39.45000,-36
39.45833,-36
39.46667,-37
39.47500,-37
39.48333,-37
39.49167,-37
39.50000,-37
39.50833,-37
39.51667,-37
39.52500,-37
39.53333,-37
39.54167,-37
39.55000,-37
39.55833,-37
39.56667,-37
39.57500,-37
39.58333,-37
39.59167,-37
39.60000,-36
39.60833,-36
39.61667,-37
39.62500,-37
39.63333,-37
39.64167,-37
39.65000,-37
39.65833,-37
39.66667,-36
39.67500,-36
39.68333,-36
39.69167,-36
39.70000,-36
39.70833,-36
39.71667,-37
39.72500,-37
39.73333,-37
39.74167,-37
39.75000,-37
39.75833,-37
39.76667,-37
39.77500,-37
39.78333,-37
39.79167,-37
39.80000,-37
39.80833,-37
39.81667,-37
39.82500,-37
39.83333,-37
39.84167,-37
39.85000,-37
39.85833,-37
39.86667,-37
39.87500,-37
39.88333,-37
39.89167,-37
39.90000,-37
39.90833,-37
39.91667,-37
39.92500,-37
39.93333,-37
39.94167,-37
39.95000,-37
39.95833,-37
39.96667,-37
39.97500,-37
39.98333,-37
39.99167,-37
40.00000,-37

[Fraction Collection Report]
# of Fractions,0
