[Header]
Application Name,LabSolutions
Version,5.97 SP1
Data File Name,C:\Users\cremerlab\Desktop\griffin\2021-03-26_calibration\2021-03-26_calibration_3262021_002_002.lcd
Output Date,3/26/2021
Output Time,7:04:55 PM

[File Information]
Type,Data File
Generated,3/26/2021 6:24:35 PM
Generated by,System Administrator
Modified,3/26/2021 7:04:55 PM
Modified by,System Administrator

[Sample Information]
Operator Name,System Administrator
Acquired,3/26/2021 6:24:54 PM
Sample Type,1:Standard
Level,2
Sample Name,2021-03-26_calibration_25mM
Sample ID,002
ISTD Amount1,1
ISTD Amount2,1
ISTD Amount3,1
ISTD Amount4,1
ISTD Amount5,1
ISTD Amount6,1
ISTD Amount7,1
ISTD Amount8,1
ISTD Amount9,1
ISTD Amount10,1
ISTD Amount11,1
ISTD Amount12,1
ISTD Amount13,1
ISTD Amount14,1
ISTD Amount15,1
ISTD Amount16,1
ISTD Amount17,1
ISTD Amount18,1
ISTD Amount19,1
ISTD Amount20,1
ISTD Amount21,1
ISTD Amount22,1
ISTD Amount23,1
ISTD Amount24,1
ISTD Amount25,1
ISTD Amount26,1
ISTD Amount27,1
ISTD Amount28,1
ISTD Amount29,1
ISTD Amount30,1
ISTD Amount31,1
ISTD Amount32,1
Sample Amount,1
Dilution Factor,1
Vial#,2
Injection Volume,20

[Original Files]
Data File,C:\Users\cremerlab\Desktop\griffin\2021-03-26_calibration\2021-03-26_calibration_3262021_002_002.lcd
Method File,C:\LabSolutions\Data\Project1\organicacidsetc2.lcm
Batch File,C:\Users\cremerlab\Desktop\griffin\2021-03-26_calibration\2021-03-26_calibration.lcb
Report Format File,c:\LabSolutions\System\DEFAULT.lsr

[File Description]


[Configuration]
Instrument Name,HPLC-PC-Instrument1
Instrument #,1
Line #,1
# of Detectors,2
Detector ID,Detector A,Detector B
Detector Name,Detector A,Detector B
# of Channels,1,1

[LC Chromatogram(Detector B-Ch1)]
Interval(msec),500
# of Points,4801
Start Time(min),0.000
End Time(min),40.000
Intensity Units,mV
Intensity Multiplier,0.001
R.Time (min),Intensity
0.00000,0
0.00833,0
0.01667,-0
0.02500,-0
0.03333,-0
0.04167,-1
0.05000,-1
0.05833,-1
0.06667,-1
0.07500,-1
0.08333,-0
0.09167,0
0.10000,0
0.10833,0
0.11667,0
0.12500,0
0.13333,0
0.14167,-0
0.15000,-0
0.15833,-1
0.16667,-1
0.17500,-1
0.18333,-1
0.19167,-1
0.20000,-1
0.20833,-1
0.21667,-1
0.22500,-1
0.23333,-0
0.24167,-0
0.25000,-0
0.25833,0
0.26667,0
0.27500,0
0.28333,0
0.29167,0
0.30000,0
0.30833,0
0.31667,0
0.32500,0
0.33333,0
0.34167,0
0.35000,0
0.35833,0
0.36667,0
0.37500,0
0.38333,0
0.39167,0
0.40000,-0
0.40833,-0
0.41667,-0
0.42500,-0
0.43333,-0
0.44167,-0
0.45000,-0
0.45833,-1
0.46667,-1
0.47500,-0
0.48333,-0
0.49167,0
0.50000,0
0.50833,0
0.51667,0
0.52500,0
0.53333,0
0.54167,0
0.55000,0
0.55833,0
0.56667,0
0.57500,1
0.58333,1
0.59167,1
0.60000,1
0.60833,0
0.61667,0
0.62500,0
0.63333,0
0.64167,-1
0.65000,-1
0.65833,-2
0.66667,-2
0.67500,-2
0.68333,-2
0.69167,-2
0.70000,-2
0.70833,-2
0.71667,-3
0.72500,-3
0.73333,-3
0.74167,-2
0.75000,-2
0.75833,-2
0.76667,-2
0.77500,-2
0.78333,-2
0.79167,-2
0.80000,-2
0.80833,-2
0.81667,-2
0.82500,-1
0.83333,-1
0.84167,-1
0.85000,-1
0.85833,-1
0.86667,-2
0.87500,-2
0.88333,-2
0.89167,-2
0.90000,-2
0.90833,-2
0.91667,-2
0.92500,-1
0.93333,-1
0.94167,-1
0.95000,-0
0.95833,-0
0.96667,-1
0.97500,-1
0.98333,-1
0.99167,-1
1.00000,-1
1.00833,-2
1.01667,-2
1.02500,-1
1.03333,-1
1.04167,-1
1.05000,-1
1.05833,-1
1.06667,-0
1.07500,-0
1.08333,-0
1.09167,-0
1.10000,-0
1.10833,-0
1.11667,-0
1.12500,-0
1.13333,-0
1.14167,-0
1.15000,-0
1.15833,-1
1.16667,-1
1.17500,-1
1.18333,-1
1.19167,-1
1.20000,-1
1.20833,-1
1.21667,-1
1.22500,-1
1.23333,-1
1.24167,-1
1.25000,-1
1.25833,-1
1.26667,-1
1.27500,-1
1.28333,-0
1.29167,-0
1.30000,-0
1.30833,-0
1.31667,-0
1.32500,-0
1.33333,-0
1.34167,-0
1.35000,-0
1.35833,-0
1.36667,-1
1.37500,-1
1.38333,-1
1.39167,-1
1.40000,-1
1.40833,-1
1.41667,-1
1.42500,-1
1.43333,-1
1.44167,-1
1.45000,-1
1.45833,-1
1.46667,-1
1.47500,-1
1.48333,-1
1.49167,-1
1.50000,-1
1.50833,-1
1.51667,-1
1.52500,-1
1.53333,-0
1.54167,-0
1.55000,-0
1.55833,-0
1.56667,-0
1.57500,-0
1.58333,-0
1.59167,-0
1.60000,-0
1.60833,0
1.61667,0
1.62500,0
1.63333,0
1.64167,0
1.65000,0
1.65833,0
1.66667,0
1.67500,0
1.68333,0
1.69167,0
1.70000,1
1.70833,0
1.71667,0
1.72500,1
1.73333,1
1.74167,1
1.75000,1
1.75833,1
1.76667,1
1.77500,1
1.78333,1
1.79167,1
1.80000,1
1.80833,1
1.81667,1
1.82500,1
1.83333,1
1.84167,0
1.85000,0
1.85833,1
1.86667,1
1.87500,1
1.88333,1
1.89167,2
1.90000,2
1.90833,2
1.91667,1
1.92500,2
1.93333,2
1.94167,2
1.95000,2
1.95833,1
1.96667,1
1.97500,1
1.98333,1
1.99167,1
2.00000,2
2.00833,2
2.01667,2
2.02500,2
2.03333,2
2.04167,2
2.05000,2
2.05833,2
2.06667,2
2.07500,2
2.08333,2
2.09167,3
2.10000,3
2.10833,3
2.11667,3
2.12500,3
2.13333,2
2.14167,2
2.15000,2
2.15833,2
2.16667,1
2.17500,1
2.18333,1
2.19167,1
2.20000,1
2.20833,1
2.21667,1
2.22500,1
2.23333,1
2.24167,1
2.25000,1
2.25833,1
2.26667,1
2.27500,1
2.28333,1
2.29167,1
2.30000,1
2.30833,1
2.31667,1
2.32500,1
2.33333,1
2.34167,1
2.35000,1
2.35833,1
2.36667,1
2.37500,1
2.38333,1
2.39167,1
2.40000,1
2.40833,1
2.41667,2
2.42500,2
2.43333,1
2.44167,1
2.45000,1
2.45833,1
2.46667,1
2.47500,1
2.48333,1
2.49167,1
2.50000,1
2.50833,1
2.51667,1
2.52500,1
2.53333,1
2.54167,1
2.55000,1
2.55833,1
2.56667,1
2.57500,2
2.58333,2
2.59167,2
2.60000,2
2.60833,2
2.61667,1
2.62500,1
2.63333,1
2.64167,1
2.65000,1
2.65833,2
2.66667,2
2.67500,1
2.68333,1
2.69167,1
2.70000,1
2.70833,1
2.71667,1
2.72500,1
2.73333,1
2.74167,1
2.75000,1
2.75833,1
2.76667,1
2.77500,1
2.78333,1
2.79167,1
2.80000,1
2.80833,1
2.81667,2
2.82500,1
2.83333,1
2.84167,1
2.85000,1
2.85833,1
2.86667,1
2.87500,1
2.88333,1
2.89167,1
2.90000,1
2.90833,1
2.91667,1
2.92500,1
2.93333,1
2.94167,1
2.95000,1
2.95833,1
2.96667,2
2.97500,2
2.98333,2
2.99167,1
3.00000,1
3.00833,1
3.01667,1
3.02500,1
3.03333,1
3.04167,1
3.05000,1
3.05833,1
3.06667,1
3.07500,1
3.08333,1
3.09167,1
3.10000,1
3.10833,1
3.11667,1
3.12500,1
3.13333,2
3.14167,2
3.15000,2
3.15833,2
3.16667,1
3.17500,1
3.18333,1
3.19167,1
3.20000,1
3.20833,2
3.21667,2
3.22500,2
3.23333,1
3.24167,1
3.25000,1
3.25833,1
3.26667,1
3.27500,1
3.28333,1
3.29167,1
3.30000,1
3.30833,1
3.31667,1
3.32500,1
3.33333,1
3.34167,1
3.35000,1
3.35833,1
3.36667,1
3.37500,1
3.38333,2
3.39167,2
3.40000,2
3.40833,2
3.41667,2
3.42500,3
3.43333,3
3.44167,3
3.45000,3
3.45833,2
3.46667,2
3.47500,2
3.48333,2
3.49167,2
3.50000,2
3.50833,2
3.51667,2
3.52500,2
3.53333,2
3.54167,2
3.55000,1
3.55833,2
3.56667,2
3.57500,2
3.58333,2
3.59167,2
3.60000,2
3.60833,2
3.61667,2
3.62500,2
3.63333,2
3.64167,2
3.65000,2
3.65833,2
3.66667,2
3.67500,2
3.68333,2
3.69167,2
3.70000,2
3.70833,3
3.71667,3
3.72500,3
3.73333,3
3.74167,3
3.75000,3
3.75833,3
3.76667,3
3.77500,3
3.78333,3
3.79167,3
3.80000,3
3.80833,3
3.81667,3
3.82500,2
3.83333,2
3.84167,2
3.85000,2
3.85833,2
3.86667,2
3.87500,2
3.88333,2
3.89167,2
3.90000,2
3.90833,3
3.91667,3
3.92500,2
3.93333,2
3.94167,2
3.95000,2
3.95833,2
3.96667,2
3.97500,3
3.98333,3
3.99167,3
4.00000,4
4.00833,4
4.01667,4
4.02500,4
4.03333,4
4.04167,4
4.05000,4
4.05833,4
4.06667,4
4.07500,4
4.08333,3
4.09167,3
4.10000,3
4.10833,4
4.11667,4
4.12500,4
4.13333,3
4.14167,3
4.15000,2
4.15833,3
4.16667,3
4.17500,3
4.18333,3
4.19167,3
4.20000,3
4.20833,3
4.21667,4
4.22500,4
4.23333,4
4.24167,4
4.25000,4
4.25833,4
4.26667,4
4.27500,5
4.28333,5
4.29167,4
4.30000,4
4.30833,4
4.31667,4
4.32500,4
4.33333,4
4.34167,4
4.35000,5
4.35833,5
4.36667,4
4.37500,4
4.38333,4
4.39167,4
4.40000,4
4.40833,4
4.41667,4
4.42500,4
4.43333,4
4.44167,4
4.45000,4
4.45833,4
4.46667,4
4.47500,4
4.48333,4
4.49167,4
4.50000,4
4.50833,4
4.51667,4
4.52500,4
4.53333,4
4.54167,3
4.55000,3
4.55833,3
4.56667,3
4.57500,3
4.58333,3
4.59167,3
4.60000,3
4.60833,3
4.61667,3
4.62500,3
4.63333,3
4.64167,3
4.65000,3
4.65833,3
4.66667,3
4.67500,3
4.68333,3
4.69167,3
4.70000,3
4.70833,3
4.71667,4
4.72500,4
4.73333,4
4.74167,3
4.75000,3
4.75833,2
4.76667,3
4.77500,3
4.78333,3
4.79167,3
4.80000,3
4.80833,3
4.81667,3
4.82500,3
4.83333,3
4.84167,3
4.85000,4
4.85833,4
4.86667,3
4.87500,3
4.88333,3
4.89167,3
4.90000,3
4.90833,3
4.91667,4
4.92500,4
4.93333,4
4.94167,4
4.95000,4
4.95833,4
4.96667,3
4.97500,3
4.98333,3
4.99167,3
5.00000,3
5.00833,3
5.01667,3
5.02500,3
5.03333,3
5.04167,3
5.05000,3
5.05833,3
5.06667,3
5.07500,3
5.08333,3
5.09167,3
5.10000,3
5.10833,3
5.11667,3
5.12500,3
5.13333,3
5.14167,3
5.15000,3
5.15833,3
5.16667,3
5.17500,3
5.18333,3
5.19167,3
5.20000,3
5.20833,3
5.21667,3
5.22500,3
5.23333,3
5.24167,3
5.25000,4
5.25833,4
5.26667,4
5.27500,4
5.28333,5
5.29167,5
5.30000,4
5.30833,4
5.31667,4
5.32500,4
5.33333,4
5.34167,4
5.35000,3
5.35833,3
5.36667,4
5.37500,4
5.38333,4
5.39167,4
5.40000,3
5.40833,3
5.41667,4
5.42500,4
5.43333,4
5.44167,4
5.45000,4
5.45833,4
5.46667,4
5.47500,4
5.48333,4
5.49167,4
5.50000,4
5.50833,4
5.51667,4
5.52500,4
5.53333,4
5.54167,4
5.55000,4
5.55833,4
5.56667,4
5.57500,4
5.58333,4
5.59167,5
5.60000,5
5.60833,5
5.61667,5
5.62500,5
5.63333,5
5.64167,5
5.65000,4
5.65833,4
5.66667,4
5.67500,4
5.68333,4
5.69167,4
5.70000,4
5.70833,4
5.71667,4
5.72500,4
5.73333,4
5.74167,4
5.75000,4
5.75833,4
5.76667,4
5.77500,4
5.78333,4
5.79167,4
5.80000,4
5.80833,4
5.81667,4
5.82500,4
5.83333,4
5.84167,4
5.85000,4
5.85833,4
5.86667,4
5.87500,4
5.88333,5
5.89167,5
5.90000,5
5.90833,5
5.91667,4
5.92500,4
5.93333,4
5.94167,4
5.95000,4
5.95833,4
5.96667,5
5.97500,5
5.98333,5
5.99167,5
6.00000,5
6.00833,5
6.01667,5
6.02500,5
6.03333,4
6.04167,4
6.05000,4
6.05833,4
6.06667,4
6.07500,4
6.08333,5
6.09167,4
6.10000,4
6.10833,4
6.11667,5
6.12500,5
6.13333,5
6.14167,5
6.15000,4
6.15833,4
6.16667,5
6.17500,5
6.18333,5
6.19167,5
6.20000,5
6.20833,4
6.21667,4
6.22500,4
6.23333,4
6.24167,4
6.25000,4
6.25833,4
6.26667,4
6.27500,4
6.28333,4
6.29167,4
6.30000,4
6.30833,4
6.31667,4
6.32500,4
6.33333,4
6.34167,5
6.35000,5
6.35833,5
6.36667,5
6.37500,4
6.38333,4
6.39167,4
6.40000,4
6.40833,4
6.41667,4
6.42500,4
6.43333,4
6.44167,4
6.45000,4
6.45833,4
6.46667,4
6.47500,4
6.48333,4
6.49167,4
6.50000,4
6.50833,4
6.51667,4
6.52500,4
6.53333,4
6.54167,4
6.55000,4
6.55833,4
6.56667,4
6.57500,4
6.58333,4
6.59167,4
6.60000,4
6.60833,4
6.61667,4
6.62500,4
6.63333,4
6.64167,4
6.65000,4
6.65833,4
6.66667,4
6.67500,4
6.68333,3
6.69167,3
6.70000,4
6.70833,4
6.71667,4
6.72500,4
6.73333,4
6.74167,4
6.75000,4
6.75833,4
6.76667,4
6.77500,4
6.78333,4
6.79167,4
6.80000,4
6.80833,4
6.81667,4
6.82500,4
6.83333,4
6.84167,4
6.85000,4
6.85833,4
6.86667,4
6.87500,4
6.88333,4
6.89167,4
6.90000,4
6.90833,4
6.91667,4
6.92500,4
6.93333,4
6.94167,4
6.95000,5
6.95833,5
6.96667,4
6.97500,4
6.98333,4
6.99167,5
7.00000,4
7.00833,4
7.01667,4
7.02500,4
7.03333,4
7.04167,4
7.05000,4
7.05833,4
7.06667,4
7.07500,4
7.08333,4
7.09167,4
7.10000,4
7.10833,4
7.11667,4
7.12500,4
7.13333,4
7.14167,4
7.15000,4
7.15833,4
7.16667,4
7.17500,3
7.18333,4
7.19167,4
7.20000,4
7.20833,4
7.21667,5
7.22500,5
7.23333,4
7.24167,4
7.25000,4
7.25833,4
7.26667,4
7.27500,4
7.28333,4
7.29167,4
7.30000,4
7.30833,4
7.31667,4
7.32500,4
7.33333,4
7.34167,4
7.35000,4
7.35833,4
7.36667,5
7.37500,5
7.38333,5
7.39167,5
7.40000,5
7.40833,5
7.41667,5
7.42500,5
7.43333,5
7.44167,5
7.45000,5
7.45833,5
7.46667,5
7.47500,5
7.48333,5
7.49167,5
7.50000,5
7.50833,5
7.51667,5
7.52500,5
7.53333,5
7.54167,5
7.55000,5
7.55833,6
7.56667,6
7.57500,6
7.58333,6
7.59167,6
7.60000,6
7.60833,7
7.61667,7
7.62500,7
7.63333,7
7.64167,6
7.65000,6
7.65833,6
7.66667,5
7.67500,5
7.68333,5
7.69167,5
7.70000,5
7.70833,5
7.71667,5
7.72500,6
7.73333,6
7.74167,6
7.75000,6
7.75833,6
7.76667,6
7.77500,6
7.78333,6
7.79167,6
7.80000,6
7.80833,6
7.81667,6
7.82500,6
7.83333,5
7.84167,5
7.85000,5
7.85833,5
7.86667,5
7.87500,5
7.88333,5
7.89167,5
7.90000,5
7.90833,5
7.91667,5
7.92500,5
7.93333,6
7.94167,6
7.95000,6
7.95833,6
7.96667,7
7.97500,7
7.98333,7
7.99167,6
8.00000,6
8.00833,5
8.01667,5
8.02500,5
8.03333,6
8.04167,6
8.05000,6
8.05833,6
8.06667,6
8.07500,6
8.08333,6
8.09167,6
8.10000,6
8.10833,6
8.11667,6
8.12500,6
8.13333,6
8.14167,6
8.15000,6
8.15833,6
8.16667,6
8.17500,6
8.18333,6
8.19167,6
8.20000,5
8.20833,5
8.21667,6
8.22500,6
8.23333,6
8.24167,6
8.25000,6
8.25833,6
8.26667,6
8.27500,6
8.28333,6
8.29167,6
8.30000,6
8.30833,5
8.31667,5
8.32500,6
8.33333,6
8.34167,6
8.35000,6
8.35833,6
8.36667,6
8.37500,6
8.38333,6
8.39167,6
8.40000,6
8.40833,7
8.41667,7
8.42500,7
8.43333,6
8.44167,6
8.45000,6
8.45833,6
8.46667,6
8.47500,6
8.48333,7
8.49167,7
8.50000,6
8.50833,6
8.51667,6
8.52500,6
8.53333,6
8.54167,6
8.55000,6
8.55833,6
8.56667,6
8.57500,6
8.58333,6
8.59167,6
8.60000,6
8.60833,6
8.61667,6
8.62500,6
8.63333,5
8.64167,6
8.65000,5
8.65833,5
8.66667,5
8.67500,5
8.68333,5
8.69167,5
8.70000,5
8.70833,6
8.71667,6
8.72500,6
8.73333,6
8.74167,6
8.75000,6
8.75833,6
8.76667,5
8.77500,5
8.78333,6
8.79167,6
8.80000,6
8.80833,6
8.81667,6
8.82500,6
8.83333,6
8.84167,6
8.85000,6
8.85833,6
8.86667,6
8.87500,6
8.88333,6
8.89167,7
8.90000,7
8.90833,7
8.91667,6
8.92500,6
8.93333,6
8.94167,6
8.95000,6
8.95833,6
8.96667,7
8.97500,7
8.98333,6
8.99167,6
9.00000,6
9.00833,6
9.01667,6
9.02500,7
9.03333,7
9.04167,7
9.05000,6
9.05833,6
9.06667,6
9.07500,6
9.08333,6
9.09167,6
9.10000,6
9.10833,6
9.11667,6
9.12500,5
9.13333,5
9.14167,5
9.15000,5
9.15833,5
9.16667,6
9.17500,6
9.18333,6
9.19167,6
9.20000,6
9.20833,6
9.21667,6
9.22500,6
9.23333,6
9.24167,6
9.25000,6
9.25833,6
9.26667,5
9.27500,5
9.28333,6
9.29167,5
9.30000,5
9.30833,5
9.31667,5
9.32500,5
9.33333,5
9.34167,5
9.35000,5
9.35833,6
9.36667,6
9.37500,6
9.38333,5
9.39167,6
9.40000,6
9.40833,5
9.41667,5
9.42500,5
9.43333,6
9.44167,6
9.45000,6
9.45833,6
9.46667,7
9.47500,6
9.48333,6
9.49167,6
9.50000,6
9.50833,6
9.51667,6
9.52500,6
9.53333,6
9.54167,6
9.55000,6
9.55833,6
9.56667,5
9.57500,6
9.58333,6
9.59167,6
9.60000,6
9.60833,7
9.61667,6
9.62500,6
9.63333,5
9.64167,5
9.65000,5
9.65833,5
9.66667,5
9.67500,5
9.68333,5
9.69167,6
9.70000,6
9.70833,6
9.71667,6
9.72500,6
9.73333,6
9.74167,6
9.75000,6
9.75833,6
9.76667,6
9.77500,6
9.78333,6
9.79167,6
9.80000,6
9.80833,6
9.81667,6
9.82500,6
9.83333,6
9.84167,6
9.85000,6
9.85833,6
9.86667,6
9.87500,6
9.88333,6
9.89167,7
9.90000,7
9.90833,7
9.91667,7
9.92500,7
9.93333,7
9.94167,7
9.95000,7
9.95833,7
9.96667,6
9.97500,6
9.98333,6
9.99167,6
10.00000,6
10.00833,6
10.01667,7
10.02500,7
10.03333,7
10.04167,7
10.05000,7
10.05833,7
10.06667,7
10.07500,7
10.08333,7
10.09167,6
10.10000,6
10.10833,7
10.11667,7
10.12500,7
10.13333,7
10.14167,7
10.15000,7
10.15833,7
10.16667,7
10.17500,7
10.18333,7
10.19167,7
10.20000,7
10.20833,7
10.21667,7
10.22500,7
10.23333,7
10.24167,7
10.25000,7
10.25833,7
10.26667,7
10.27500,7
10.28333,7
10.29167,7
10.30000,7
10.30833,7
10.31667,7
10.32500,7
10.33333,7
10.34167,7
10.35000,7
10.35833,7
10.36667,7
10.37500,7
10.38333,7
10.39167,7
10.40000,7
10.40833,7
10.41667,6
10.42500,7
10.43333,7
10.44167,6
10.45000,6
10.45833,6
10.46667,5
10.47500,5
10.48333,5
10.49167,5
10.50000,5
10.50833,4
10.51667,3
10.52500,3
10.53333,2
10.54167,1
10.55000,-0
10.55833,-2
10.56667,-4
10.57500,-6
10.58333,-10
10.59167,-14
10.60000,-20
10.60833,-29
10.61667,-41
10.62500,-57
10.63333,-78
10.64167,-108
10.65000,-147
10.65833,-200
10.66667,-268
10.67500,-358
10.68333,-473
10.69167,-620
10.70000,-804
10.70833,-1033
10.71667,-1314
10.72500,-1656
10.73333,-2064
10.74167,-2547
10.75000,-3111
10.75833,-3760
10.76667,-4497
10.77500,-5324
10.78333,-6238
10.79167,-7236
10.80000,-8308
10.80833,-9446
10.81667,-10634
10.82500,-11857
10.83333,-13098
10.84167,-14335
10.85000,-15550
10.85833,-16721
10.86667,-17829
10.87500,-18855
10.88333,-19782
10.89167,-20596
10.90000,-21285
10.90833,-21840
10.91667,-22254
10.92500,-22527
10.93333,-22656
10.94167,-22646
10.95000,-22502
10.95833,-22230
10.96667,-21840
10.97500,-21342
10.98333,-20747
10.99167,-20069
11.00000,-19318
11.00833,-18508
11.01667,-17652
11.02500,-16761
11.03333,-15847
11.04167,-14920
11.05000,-13990
11.05833,-13067
11.06667,-12159
11.07500,-11272
11.08333,-10413
11.09167,-9586
11.10000,-8796
11.10833,-8045
11.11667,-7337
11.12500,-6672
11.13333,-6051
11.14167,-5474
11.15000,-4940
11.15833,-4449
11.16667,-4000
11.17500,-3590
11.18333,-3218
11.19167,-2880
11.20000,-2576
11.20833,-2303
11.21667,-2059
11.22500,-1840
11.23333,-1646
11.24167,-1474
11.25000,-1321
11.25833,-1185
11.26667,-1065
11.27500,-960
11.28333,-867
11.29167,-785
11.30000,-712
11.30833,-649
11.31667,-593
11.32500,-544
11.33333,-500
11.34167,-462
11.35000,-429
11.35833,-399
11.36667,-372
11.37500,-348
11.38333,-326
11.39167,-307
11.40000,-290
11.40833,-274
11.41667,-260
11.42500,-247
11.43333,-235
11.44167,-225
11.45000,-215
11.45833,-205
11.46667,-196
11.47500,-188
11.48333,-181
11.49167,-174
11.50000,-167
11.50833,-161
11.51667,-155
11.52500,-150
11.53333,-145
11.54167,-140
11.55000,-135
11.55833,-130
11.56667,-126
11.57500,-122
11.58333,-118
11.59167,-115
11.60000,-112
11.60833,-109
11.61667,-106
11.62500,-103
11.63333,-100
11.64167,-97
11.65000,-95
11.65833,-92
11.66667,-90
11.67500,-88
11.68333,-85
11.69167,-83
11.70000,-81
11.70833,-79
11.71667,-77
11.72500,-75
11.73333,-73
11.74167,-71
11.75000,-69
11.75833,-68
11.76667,-66
11.77500,-64
11.78333,-63
11.79167,-61
11.80000,-59
11.80833,-58
11.81667,-56
11.82500,-54
11.83333,-53
11.84167,-52
11.85000,-51
11.85833,-49
11.86667,-48
11.87500,-46
11.88333,-45
11.89167,-44
11.90000,-43
11.90833,-42
11.91667,-42
11.92500,-41
11.93333,-40
11.94167,-39
11.95000,-38
11.95833,-37
11.96667,-36
11.97500,-36
11.98333,-35
11.99167,-35
12.00000,-35
12.00833,-35
12.01667,-34
12.02500,-35
12.03333,-35
12.04167,-35
12.05000,-34
12.05833,-34
12.06667,-33
12.07500,-33
12.08333,-33
12.09167,-33
12.10000,-33
12.10833,-33
12.11667,-33
12.12500,-32
12.13333,-32
12.14167,-32
12.15000,-32
12.15833,-32
12.16667,-32
12.17500,-32
12.18333,-33
12.19167,-33
12.20000,-33
12.20833,-33
12.21667,-33
12.22500,-33
12.23333,-33
12.24167,-33
12.25000,-33
12.25833,-33
12.26667,-33
12.27500,-33
12.28333,-32
12.29167,-32
12.30000,-32
12.30833,-32
12.31667,-32
12.32500,-32
12.33333,-32
12.34167,-32
12.35000,-32
12.35833,-32
12.36667,-32
12.37500,-31
12.38333,-31
12.39167,-30
12.40000,-30
12.40833,-30
12.41667,-30
12.42500,-29
12.43333,-29
12.44167,-29
12.45000,-29
12.45833,-29
12.46667,-29
12.47500,-29
12.48333,-28
12.49167,-28
12.50000,-28
12.50833,-28
12.51667,-28
12.52500,-27
12.53333,-26
12.54167,-26
12.55000,-26
12.55833,-25
12.56667,-25
12.57500,-24
12.58333,-24
12.59167,-24
12.60000,-25
12.60833,-24
12.61667,-24
12.62500,-23
12.63333,-23
12.64167,-23
12.65000,-22
12.65833,-22
12.66667,-21
12.67500,-21
12.68333,-21
12.69167,-20
12.70000,-19
12.70833,-18
12.71667,-18
12.72500,-17
12.73333,-16
12.74167,-16
12.75000,-15
12.75833,-14
12.76667,-13
12.77500,-12
12.78333,-11
12.79167,-10
12.80000,-9
12.80833,-8
12.81667,-7
12.82500,-6
12.83333,-5
12.84167,-3
12.85000,-2
12.85833,-0
12.86667,1
12.87500,2
12.88333,4
12.89167,5
12.90000,7
12.90833,9
12.91667,10
12.92500,12
12.93333,13
12.94167,15
12.95000,17
12.95833,18
12.96667,20
12.97500,21
12.98333,23
12.99167,24
13.00000,25
13.00833,26
13.01667,28
13.02500,29
13.03333,30
13.04167,31
13.05000,32
13.05833,34
13.06667,35
13.07500,36
13.08333,37
13.09167,38
13.10000,39
13.10833,40
13.11667,41
13.12500,42
13.13333,43
13.14167,43
13.15000,44
13.15833,45
13.16667,46
13.17500,46
13.18333,46
13.19167,47
13.20000,47
13.20833,48
13.21667,48
13.22500,48
13.23333,48
13.24167,48
13.25000,47
13.25833,47
13.26667,46
13.27500,45
13.28333,45
13.29167,44
13.30000,44
13.30833,43
13.31667,42
13.32500,41
13.33333,40
13.34167,38
13.35000,37
13.35833,36
13.36667,35
13.37500,33
13.38333,32
13.39167,30
13.40000,29
13.40833,28
13.41667,26
13.42500,25
13.43333,24
13.44167,22
13.45000,21
13.45833,20
13.46667,19
13.47500,18
13.48333,16
13.49167,15
13.50000,14
13.50833,13
13.51667,12
13.52500,11
13.53333,10
13.54167,9
13.55000,8
13.55833,7
13.56667,6
13.57500,5
13.58333,4
13.59167,4
13.60000,3
13.60833,2
13.61667,2
13.62500,1
13.63333,1
13.64167,0
13.65000,-0
13.65833,-0
13.66667,-0
13.67500,-0
13.68333,-0
13.69167,-1
13.70000,-1
13.70833,-1
13.71667,-2
13.72500,-2
13.73333,-3
13.74167,-3
13.75000,-3
13.75833,-3
13.76667,-3
13.77500,-3
13.78333,-3
13.79167,-3
13.80000,-3
13.80833,-3
13.81667,-3
13.82500,-3
13.83333,-4
13.84167,-4
13.85000,-4
13.85833,-3
13.86667,-3
13.87500,-3
13.88333,-3
13.89167,-3
13.90000,-4
13.90833,-4
13.91667,-4
13.92500,-4
13.93333,-4
13.94167,-4
13.95000,-4
13.95833,-4
13.96667,-4
13.97500,-4
13.98333,-4
13.99167,-4
14.00000,-3
14.00833,-3
14.01667,-4
14.02500,-4
14.03333,-4
14.04167,-4
14.05000,-3
14.05833,-3
14.06667,-3
14.07500,-3
14.08333,-3
14.09167,-3
14.10000,-3
14.10833,-3
14.11667,-4
14.12500,-4
14.13333,-4
14.14167,-4
14.15000,-4
14.15833,-3
14.16667,-3
14.17500,-3
14.18333,-3
14.19167,-4
14.20000,-4
14.20833,-4
14.21667,-4
14.22500,-4
14.23333,-4
14.24167,-3
14.25000,-3
14.25833,-3
14.26667,-3
14.27500,-3
14.28333,-3
14.29167,-3
14.30000,-3
14.30833,-3
14.31667,-3
14.32500,-3
14.33333,-3
14.34167,-3
14.35000,-3
14.35833,-3
14.36667,-4
14.37500,-4
14.38333,-4
14.39167,-4
14.40000,-4
14.40833,-3
14.41667,-3
14.42500,-3
14.43333,-2
14.44167,-2
14.45000,-2
14.45833,-2
14.46667,-1
14.47500,-1
14.48333,-1
14.49167,-1
14.50000,-1
14.50833,-1
14.51667,-1
14.52500,-1
14.53333,-1
14.54167,-1
14.55000,-1
14.55833,-2
14.56667,-2
14.57500,-2
14.58333,-2
14.59167,-1
14.60000,-1
14.60833,-1
14.61667,-1
14.62500,-1
14.63333,-0
14.64167,-0
14.65000,0
14.65833,0
14.66667,0
14.67500,0
14.68333,-0
14.69167,-0
14.70000,-1
14.70833,-1
14.71667,-1
14.72500,-0
14.73333,-0
14.74167,0
14.75000,0
14.75833,1
14.76667,1
14.77500,1
14.78333,2
14.79167,2
14.80000,2
14.80833,2
14.81667,2
14.82500,2
14.83333,2
14.84167,2
14.85000,3
14.85833,4
14.86667,4
14.87500,5
14.88333,5
14.89167,5
14.90000,6
14.90833,6
14.91667,7
14.92500,8
14.93333,9
14.94167,10
14.95000,12
14.95833,14
14.96667,16
14.97500,19
14.98333,22
14.99167,26
15.00000,30
15.00833,35
15.01667,41
15.02500,47
15.03333,56
15.04167,66
15.05000,77
15.05833,91
15.06667,107
15.07500,127
15.08333,150
15.09167,178
15.10000,210
15.10833,249
15.11667,294
15.12500,349
15.13333,414
15.14167,491
15.15000,582
15.15833,690
15.16667,817
15.17500,967
15.18333,1143
15.19167,1350
15.20000,1591
15.20833,1871
15.21667,2198
15.22500,2575
15.23333,3010
15.24167,3510
15.25000,4080
15.25833,4730
15.26667,5466
15.27500,6297
15.28333,7231
15.29167,8276
15.30000,9438
15.30833,10725
15.31667,12145
15.32500,13702
15.33333,15403
15.34167,17250
15.35000,19248
15.35833,21397
15.36667,23696
15.37500,26145
15.38333,28737
15.39167,31468
15.40000,34330
15.40833,37311
15.41667,40401
15.42500,43585
15.43333,46846
15.44167,50167
15.45000,53528
15.45833,56908
15.46667,60284
15.47500,63634
15.48333,66934
15.49167,70160
15.50000,73286
15.50833,76290
15.51667,79148
15.52500,81838
15.53333,84339
15.54167,86631
15.55000,88698
15.55833,90523
15.56667,92094
15.57500,93401
15.58333,94434
15.59167,95190
15.60000,95664
15.60833,95858
15.61667,95773
15.62500,95414
15.63333,94790
15.64167,93910
15.65000,92784
15.65833,91426
15.66667,89851
15.67500,88076
15.68333,86117
15.69167,83993
15.70000,81721
15.70833,79322
15.71667,76812
15.72500,74210
15.73333,71537
15.74167,68808
15.75000,66041
15.75833,63252
15.76667,60456
15.77500,57668
15.78333,54902
15.79167,52169
15.80000,49481
15.80833,46847
15.81667,44276
15.82500,41776
15.83333,39353
15.84167,37011
15.85000,34755
15.85833,32589
15.86667,30514
15.87500,28532
15.88333,26645
15.89167,24851
15.90000,23151
15.90833,21543
15.91667,20026
15.92500,18598
15.93333,17255
15.94167,15995
15.95000,14816
15.95833,13714
15.96667,12686
15.97500,11729
15.98333,10839
15.99167,10012
16.00000,9246
16.00833,8536
16.01667,7880
16.02500,7274
16.03333,6716
16.04167,6200
16.05000,5726
16.05833,5290
16.06667,4889
16.07500,4521
16.08333,4183
16.09167,3873
16.10000,3589
16.10833,3328
16.11667,3090
16.12500,2871
16.13333,2671
16.14167,2488
16.15000,2321
16.15833,2167
16.16667,2027
16.17500,1899
16.18333,1781
16.19167,1673
16.20000,1575
16.20833,1484
16.21667,1402
16.22500,1326
16.23333,1256
16.24167,1192
16.25000,1133
16.25833,1078
16.26667,1028
16.27500,981
16.28333,939
16.29167,899
16.30000,863
16.30833,830
16.31667,799
16.32500,770
16.33333,743
16.34167,718
16.35000,695
16.35833,674
16.36667,653
16.37500,635
16.38333,617
16.39167,601
16.40000,586
16.40833,571
16.41667,558
16.42500,545
16.43333,533
16.44167,522
16.45000,511
16.45833,500
16.46667,491
16.47500,482
16.48333,473
16.49167,465
16.50000,457
16.50833,450
16.51667,443
16.52500,436
16.53333,430
16.54167,424
16.55000,419
16.55833,414
16.56667,408
16.57500,403
16.58333,399
16.59167,394
16.60000,389
16.60833,385
16.61667,380
16.62500,376
16.63333,372
16.64167,369
16.65000,365
16.65833,361
16.66667,357
16.67500,353
16.68333,350
16.69167,347
16.70000,343
16.70833,340
16.71667,336
16.72500,333
16.73333,330
16.74167,327
16.75000,324
16.75833,321
16.76667,319
16.77500,316
16.78333,313
16.79167,310
16.80000,308
16.80833,305
16.81667,303
16.82500,299
16.83333,296
16.84167,294
16.85000,291
16.85833,288
16.86667,286
16.87500,283
16.88333,281
16.89167,279
16.90000,276
16.90833,274
16.91667,271
16.92500,269
16.93333,266
16.94167,264
16.95000,261
16.95833,259
16.96667,256
16.97500,254
16.98333,252
16.99167,249
17.00000,247
17.00833,245
17.01667,243
17.02500,241
17.03333,239
17.04167,237
17.05000,235
17.05833,233
17.06667,230
17.07500,228
17.08333,226
17.09167,224
17.10000,222
17.10833,220
17.11667,218
17.12500,216
17.13333,214
17.14167,212
17.15000,211
17.15833,209
17.16667,207
17.17500,205
17.18333,204
17.19167,202
17.20000,201
17.20833,199
17.21667,198
17.22500,197
17.23333,196
17.24167,194
17.25000,192
17.25833,191
17.26667,190
17.27500,189
17.28333,187
17.29167,186
17.30000,185
17.30833,183
17.31667,182
17.32500,181
17.33333,180
17.34167,179
17.35000,178
17.35833,177
17.36667,177
17.37500,175
17.38333,174
17.39167,173
17.40000,171
17.40833,170
17.41667,170
17.42500,169
17.43333,168
17.44167,168
17.45000,167
17.45833,165
17.46667,165
17.47500,164
17.48333,163
17.49167,162
17.50000,161
17.50833,160
17.51667,159
17.52500,159
17.53333,158
17.54167,157
17.55000,157
17.55833,156
17.56667,155
17.57500,155
17.58333,154
17.59167,153
17.60000,152
17.60833,151
17.61667,150
17.62500,149
17.63333,149
17.64167,148
17.65000,147
17.65833,147
17.66667,146
17.67500,146
17.68333,145
17.69167,144
17.70000,144
17.70833,144
17.71667,143
17.72500,142
17.73333,142
17.74167,141
17.75000,141
17.75833,140
17.76667,139
17.77500,139
17.78333,138
17.79167,137
17.80000,136
17.80833,136
17.81667,135
17.82500,134
17.83333,134
17.84167,133
17.85000,133
17.85833,132
17.86667,132
17.87500,132
17.88333,131
17.89167,131
17.90000,130
17.90833,130
17.91667,129
17.92500,129
17.93333,128
17.94167,128
17.95000,127
17.95833,126
17.96667,126
17.97500,125
17.98333,125
17.99167,124
18.00000,124
18.00833,123
18.01667,122
18.02500,122
18.03333,121
18.04167,120
18.05000,120
18.05833,119
18.06667,119
18.07500,118
18.08333,118
18.09167,117
18.10000,117
18.10833,117
18.11667,116
18.12500,115
18.13333,115
18.14167,115
18.15000,115
18.15833,114
18.16667,114
18.17500,113
18.18333,112
18.19167,111
18.20000,111
18.20833,110
18.21667,109
18.22500,109
18.23333,108
18.24167,108
18.25000,108
18.25833,107
18.26667,106
18.27500,106
18.28333,105
18.29167,104
18.30000,104
18.30833,103
18.31667,103
18.32500,102
18.33333,102
18.34167,101
18.35000,101
18.35833,100
18.36667,100
18.37500,99
18.38333,99
18.39167,99
18.40000,98
18.40833,97
18.41667,97
18.42500,96
18.43333,95
18.44167,95
18.45000,95
18.45833,95
18.46667,94
18.47500,94
18.48333,94
18.49167,93
18.50000,93
18.50833,92
18.51667,91
18.52500,91
18.53333,90
18.54167,90
18.55000,90
18.55833,89
18.56667,89
18.57500,89
18.58333,89
18.59167,88
18.60000,87
18.60833,87
18.61667,87
18.62500,86
18.63333,86
18.64167,86
18.65000,85
18.65833,85
18.66667,85
18.67500,84
18.68333,84
18.69167,84
18.70000,84
18.70833,84
18.71667,84
18.72500,84
18.73333,84
18.74167,84
18.75000,84
18.75833,84
18.76667,83
18.77500,83
18.78333,83
18.79167,82
18.80000,82
18.80833,81
18.81667,81
18.82500,81
18.83333,81
18.84167,81
18.85000,81
18.85833,81
18.86667,81
18.87500,81
18.88333,81
18.89167,80
18.90000,80
18.90833,79
18.91667,79
18.92500,78
18.93333,78
18.94167,78
18.95000,78
18.95833,78
18.96667,78
18.97500,78
18.98333,77
18.99167,77
19.00000,77
19.00833,77
19.01667,76
19.02500,76
19.03333,75
19.04167,75
19.05000,74
19.05833,73
19.06667,73
19.07500,73
19.08333,72
19.09167,72
19.10000,71
19.10833,70
19.11667,70
19.12500,69
19.13333,69
19.14167,69
19.15000,68
19.15833,68
19.16667,67
19.17500,67
19.18333,67
19.19167,67
19.20000,66
19.20833,66
19.21667,66
19.22500,65
19.23333,65
19.24167,65
19.25000,65
19.25833,64
19.26667,63
19.27500,63
19.28333,62
19.29167,62
19.30000,62
19.30833,62
19.31667,62
19.32500,62
19.33333,62
19.34167,62
19.35000,61
19.35833,61
19.36667,61
19.37500,60
19.38333,60
19.39167,59
19.40000,59
19.40833,59
19.41667,58
19.42500,58
19.43333,58
19.44167,58
19.45000,57
19.45833,57
19.46667,57
19.47500,56
19.48333,56
19.49167,56
19.50000,56
19.50833,56
19.51667,56
19.52500,55
19.53333,55
19.54167,55
19.55000,54
19.55833,54
19.56667,54
19.57500,54
19.58333,54
19.59167,54
19.60000,54
19.60833,54
19.61667,54
19.62500,54
19.63333,53
19.64167,53
19.65000,53
19.65833,52
19.66667,52
19.67500,52
19.68333,51
19.69167,51
19.70000,51
19.70833,51
19.71667,51
19.72500,51
19.73333,51
19.74167,50
19.75000,50
19.75833,50
19.76667,50
19.77500,50
19.78333,50
19.79167,49
19.80000,49
19.80833,49
19.81667,49
19.82500,49
19.83333,49
19.84167,48
19.85000,48
19.85833,48
19.86667,48
19.87500,48
19.88333,48
19.89167,47
19.90000,47
19.90833,47
19.91667,47
19.92500,47
19.93333,47
19.94167,47
19.95000,46
19.95833,46
19.96667,47
19.97500,47
19.98333,46
19.99167,46
20.00000,45
20.00833,45
20.01667,45
20.02500,45
20.03333,45
20.04167,45
20.05000,45
20.05833,45
20.06667,45
20.07500,45
20.08333,45
20.09167,45
20.10000,45
20.10833,45
20.11667,44
20.12500,44
20.13333,44
20.14167,43
20.15000,43
20.15833,43
20.16667,43
20.17500,43
20.18333,43
20.19167,43
20.20000,43
20.20833,43
20.21667,42
20.22500,42
20.23333,42
20.24167,42
20.25000,42
20.25833,42
20.26667,42
20.27500,41
20.28333,41
20.29167,41
20.30000,41
20.30833,41
20.31667,41
20.32500,42
20.33333,42
20.34167,41
20.35000,41
20.35833,41
20.36667,40
20.37500,40
20.38333,40
20.39167,40
20.40000,40
20.40833,40
20.41667,39
20.42500,39
20.43333,39
20.44167,39
20.45000,39
20.45833,39
20.46667,39
20.47500,39
20.48333,39
20.49167,39
20.50000,39
20.50833,39
20.51667,39
20.52500,39
20.53333,39
20.54167,39
20.55000,39
20.55833,38
20.56667,38
20.57500,37
20.58333,37
20.59167,37
20.60000,38
20.60833,38
20.61667,37
20.62500,37
20.63333,37
20.64167,37
20.65000,37
20.65833,37
20.66667,37
20.67500,37
20.68333,37
20.69167,37
20.70000,37
20.70833,37
20.71667,37
20.72500,37
20.73333,37
20.74167,37
20.75000,37
20.75833,37
20.76667,37
20.77500,37
20.78333,37
20.79167,37
20.80000,37
20.80833,37
20.81667,37
20.82500,37
20.83333,37
20.84167,37
20.85000,37
20.85833,37
20.86667,36
20.87500,36
20.88333,36
20.89167,36
20.90000,36
20.90833,36
20.91667,36
20.92500,36
20.93333,36
20.94167,36
20.95000,36
20.95833,36
20.96667,36
20.97500,35
20.98333,35
20.99167,35
21.00000,35
21.00833,35
21.01667,35
21.02500,35
21.03333,34
21.04167,34
21.05000,34
21.05833,34
21.06667,34
21.07500,35
21.08333,35
21.09167,35
21.10000,35
21.10833,35
21.11667,34
21.12500,34
21.13333,34
21.14167,34
21.15000,34
21.15833,34
21.16667,34
21.17500,34
21.18333,34
21.19167,34
21.20000,34
21.20833,35
21.21667,35
21.22500,36
21.23333,36
21.24167,37
21.25000,37
21.25833,37
21.26667,37
21.27500,38
21.28333,38
21.29167,39
21.30000,40
21.30833,41
21.31667,42
21.32500,43
21.33333,44
21.34167,46
21.35000,48
21.35833,49
21.36667,51
21.37500,53
21.38333,56
21.39167,59
21.40000,62
21.40833,66
21.41667,70
21.42500,75
21.43333,80
21.44167,87
21.45000,94
21.45833,102
21.46667,111
21.47500,121
21.48333,132
21.49167,145
21.50000,159
21.50833,176
21.51667,195
21.52500,216
21.53333,240
21.54167,266
21.55000,296
21.55833,329
21.56667,367
21.57500,410
21.58333,458
21.59167,512
21.60000,573
21.60833,641
21.61667,717
21.62500,803
21.63333,898
21.64167,1003
21.65000,1121
21.65833,1251
21.66667,1396
21.67500,1555
21.68333,1731
21.69167,1925
21.70000,2137
21.70833,2369
21.71667,2622
21.72500,2898
21.73333,3198
21.74167,3522
21.75000,3872
21.75833,4249
21.76667,4653
21.77500,5085
21.78333,5545
21.79167,6034
21.80000,6552
21.80833,7097
21.81667,7671
21.82500,8271
21.83333,8898
21.84167,9549
21.85000,10223
21.85833,10918
21.86667,11632
21.87500,12363
21.88333,13107
21.89167,13861
21.90000,14623
21.90833,15387
21.91667,16152
21.92500,16912
21.93333,17663
21.94167,18402
21.95000,19124
21.95833,19825
21.96667,20501
21.97500,21148
21.98333,21761
21.99167,22337
22.00000,22872
22.00833,23363
22.01667,23807
22.02500,24201
22.03333,24542
22.04167,24830
22.05000,25061
22.05833,25235
22.06667,25351
22.07500,25408
22.08333,25408
22.09167,25349
22.10000,25234
22.10833,25063
22.11667,24839
22.12500,24562
22.13333,24236
22.14167,23864
22.15000,23447
22.15833,22988
22.16667,22493
22.17500,21962
22.18333,21401
22.19167,20813
22.20000,20200
22.20833,19568
22.21667,18919
22.22500,18257
22.23333,17586
22.24167,16908
22.25000,16228
22.25833,15547
22.26667,14869
22.27500,14196
22.28333,13531
22.29167,12877
22.30000,12234
22.30833,11605
22.31667,10992
22.32500,10396
22.33333,9818
22.34167,9259
22.35000,8720
22.35833,8201
22.36667,7704
22.37500,7228
22.38333,6773
22.39167,6340
22.40000,5928
22.40833,5537
22.41667,5167
22.42500,4818
22.43333,4488
22.44167,4177
22.45000,3886
22.45833,3612
22.46667,3356
22.47500,3116
22.48333,2893
22.49167,2684
22.50000,2490
22.50833,2309
22.51667,2141
22.52500,1986
22.53333,1842
22.54167,1708
22.55000,1585
22.55833,1471
22.56667,1366
22.57500,1269
22.58333,1180
22.59167,1097
22.60000,1022
22.60833,952
22.61667,888
22.62500,830
22.63333,776
22.64167,726
22.65000,681
22.65833,640
22.66667,602
22.67500,567
22.68333,535
22.69167,506
22.70000,479
22.70833,454
22.71667,431
22.72500,410
22.73333,391
22.74167,373
22.75000,357
22.75833,341
22.76667,327
22.77500,314
22.78333,303
22.79167,292
22.80000,282
22.80833,273
22.81667,264
22.82500,256
22.83333,248
22.84167,241
22.85000,235
22.85833,229
22.86667,223
22.87500,218
22.88333,213
22.89167,208
22.90000,203
22.90833,200
22.91667,196
22.92500,193
22.93333,189
22.94167,186
22.95000,183
22.95833,180
22.96667,177
22.97500,174
22.98333,172
22.99167,169
23.00000,167
23.00833,165
23.01667,163
23.02500,161
23.03333,158
23.04167,156
23.05000,154
23.05833,152
23.06667,151
23.07500,150
23.08333,148
23.09167,147
23.10000,145
23.10833,144
23.11667,143
23.12500,141
23.13333,140
23.14167,139
23.15000,137
23.15833,136
23.16667,136
23.17500,135
23.18333,134
23.19167,133
23.20000,131
23.20833,130
23.21667,128
23.22500,127
23.23333,126
23.24167,125
23.25000,124
23.25833,123
23.26667,122
23.27500,122
23.28333,121
23.29167,120
23.30000,120
23.30833,119
23.31667,118
23.32500,117
23.33333,116
23.34167,115
23.35000,114
23.35833,113
23.36667,112
23.37500,111
23.38333,110
23.39167,109
23.40000,108
23.40833,108
23.41667,107
23.42500,106
23.43333,106
23.44167,105
23.45000,105
23.45833,104
23.46667,103
23.47500,102
23.48333,101
23.49167,101
23.50000,100
23.50833,100
23.51667,99
23.52500,99
23.53333,98
23.54167,97
23.55000,97
23.55833,96
23.56667,95
23.57500,95
23.58333,94
23.59167,94
23.60000,93
23.60833,93
23.61667,92
23.62500,92
23.63333,91
23.64167,91
23.65000,90
23.65833,89
23.66667,88
23.67500,88
23.68333,87
23.69167,87
23.70000,86
23.70833,86
23.71667,85
23.72500,85
23.73333,84
23.74167,84
23.75000,84
23.75833,83
23.76667,83
23.77500,83
23.78333,83
23.79167,83
23.80000,82
23.80833,82
23.81667,82
23.82500,82
23.83333,82
23.84167,81
23.85000,81
23.85833,81
23.86667,80
23.87500,80
23.88333,80
23.89167,80
23.90000,79
23.90833,79
23.91667,79
23.92500,78
23.93333,78
23.94167,77
23.95000,77
23.95833,77
23.96667,76
23.97500,77
23.98333,77
23.99167,77
24.00000,77
24.00833,77
24.01667,77
24.02500,77
24.03333,77
24.04167,76
24.05000,76
24.05833,76
24.06667,75
24.07500,75
24.08333,75
24.09167,75
24.10000,75
24.10833,75
24.11667,74
24.12500,74
24.13333,73
24.14167,73
24.15000,73
24.15833,74
24.16667,74
24.17500,74
24.18333,74
24.19167,74
24.20000,74
24.20833,74
24.21667,74
24.22500,75
24.23333,75
24.24167,75
24.25000,76
24.25833,77
24.26667,78
24.27500,79
24.28333,80
24.29167,81
24.30000,82
24.30833,84
24.31667,86
24.32500,88
24.33333,91
24.34167,94
24.35000,98
24.35833,101
24.36667,106
24.37500,110
24.38333,115
24.39167,121
24.40000,128
24.40833,136
24.41667,144
24.42500,153
24.43333,164
24.44167,175
24.45000,188
24.45833,202
24.46667,218
24.47500,235
24.48333,255
24.49167,276
24.50000,300
24.50833,327
24.51667,356
24.52500,389
24.53333,425
24.54167,464
24.55000,508
24.55833,555
24.56667,607
24.57500,665
24.58333,727
24.59167,795
24.60000,868
24.60833,948
24.61667,1034
24.62500,1127
24.63333,1228
24.64167,1336
24.65000,1452
24.65833,1576
24.66667,1709
24.67500,1850
24.68333,2001
24.69167,2160
24.70000,2328
24.70833,2506
24.71667,2693
24.72500,2889
24.73333,3094
24.74167,3307
24.75000,3528
24.75833,3757
24.76667,3994
24.77500,4238
24.78333,4488
24.79167,4744
24.80000,5005
24.80833,5270
24.81667,5538
24.82500,5808
24.83333,6079
24.84167,6349
24.85000,6618
24.85833,6884
24.86667,7147
24.87500,7404
24.88333,7655
24.89167,7899
24.90000,8133
24.90833,8358
24.91667,8572
24.92500,8774
24.93333,8962
24.94167,9136
24.95000,9294
24.95833,9436
24.96667,9562
24.97500,9670
24.98333,9760
24.99167,9831
25.00000,9884
25.00833,9917
25.01667,9932
25.02500,9928
25.03333,9905
25.04167,9864
25.05000,9804
25.05833,9727
25.06667,9633
25.07500,9522
25.08333,9396
25.09167,9254
25.10000,9098
25.10833,8930
25.11667,8749
25.12500,8557
25.13333,8355
25.14167,8144
25.15000,7926
25.15833,7700
25.16667,7468
25.17500,7231
25.18333,6991
25.19167,6748
25.20000,6503
25.20833,6258
25.21667,6012
25.22500,5767
25.23333,5524
25.24167,5284
25.25000,5047
25.25833,4814
25.26667,4585
25.27500,4361
25.28333,4143
25.29167,3930
25.30000,3724
25.30833,3524
25.31667,3330
25.32500,3144
25.33333,2964
25.34167,2792
25.35000,2627
25.35833,2469
25.36667,2318
25.37500,2175
25.38333,2039
25.39167,1910
25.40000,1787
25.40833,1671
25.41667,1561
25.42500,1458
25.43333,1361
25.44167,1269
25.45000,1184
25.45833,1104
25.46667,1029
25.47500,959
25.48333,894
25.49167,833
25.50000,776
25.50833,724
25.51667,675
25.52500,629
25.53333,587
25.54167,548
25.55000,512
25.55833,479
25.56667,448
25.57500,420
25.58333,394
25.59167,370
25.60000,347
25.60833,327
25.61667,308
25.62500,291
25.63333,275
25.64167,261
25.65000,247
25.65833,235
25.66667,223
25.67500,213
25.68333,203
25.69167,195
25.70000,187
25.70833,180
25.71667,173
25.72500,167
25.73333,161
25.74167,155
25.75000,150
25.75833,145
25.76667,142
25.77500,138
25.78333,135
25.79167,131
25.80000,128
25.80833,126
25.81667,123
25.82500,120
25.83333,118
25.84167,116
25.85000,114
25.85833,112
25.86667,110
25.87500,109
25.88333,107
25.89167,106
25.90000,105
25.90833,103
25.91667,101
25.92500,100
25.93333,98
25.94167,97
25.95000,97
25.95833,96
25.96667,95
25.97500,94
25.98333,92
25.99167,91
26.00000,90
26.00833,89
26.01667,88
26.02500,88
26.03333,87
26.04167,87
26.05000,86
26.05833,85
26.06667,85
26.07500,84
26.08333,83
26.09167,82
26.10000,81
26.10833,81
26.11667,80
26.12500,79
26.13333,79
26.14167,78
26.15000,78
26.15833,77
26.16667,77
26.17500,77
26.18333,77
26.19167,76
26.20000,76
26.20833,75
26.21667,75
26.22500,75
26.23333,74
26.24167,73
26.25000,73
26.25833,72
26.26667,71
26.27500,71
26.28333,70
26.29167,70
26.30000,70
26.30833,70
26.31667,69
26.32500,69
26.33333,69
26.34167,68
26.35000,68
26.35833,67
26.36667,67
26.37500,67
26.38333,67
26.39167,66
26.40000,66
26.40833,66
26.41667,66
26.42500,66
26.43333,65
26.44167,65
26.45000,65
26.45833,65
26.46667,65
26.47500,65
26.48333,65
26.49167,65
26.50000,65
26.50833,65
26.51667,65
26.52500,65
26.53333,65
26.54167,64
26.55000,64
26.55833,64
26.56667,64
26.57500,64
26.58333,64
26.59167,64
26.60000,64
26.60833,64
26.61667,64
26.62500,64
26.63333,64
26.64167,64
26.65000,63
26.65833,63
26.66667,63
26.67500,63
26.68333,63
26.69167,63
26.70000,63
26.70833,63
26.71667,63
26.72500,62
26.73333,62
26.74167,62
26.75000,62
26.75833,62
26.76667,62
26.77500,61
26.78333,61
26.79167,61
26.80000,61
26.80833,61
26.81667,61
26.82500,61
26.83333,61
26.84167,61
26.85000,60
26.85833,60
26.86667,60
26.87500,59
26.88333,59
26.89167,59
26.90000,59
26.90833,59
26.91667,58
26.92500,58
26.93333,58
26.94167,58
26.95000,58
26.95833,58
26.96667,58
26.97500,58
26.98333,58
26.99167,58
27.00000,58
27.00833,58
27.01667,57
27.02500,57
27.03333,56
27.04167,56
27.05000,56
27.05833,56
27.06667,56
27.07500,56
27.08333,55
27.09167,55
27.10000,54
27.10833,54
27.11667,54
27.12500,53
27.13333,53
27.14167,53
27.15000,53
27.15833,52
27.16667,52
27.17500,52
27.18333,52
27.19167,52
27.20000,51
27.20833,51
27.21667,51
27.22500,51
27.23333,51
27.24167,51
27.25000,51
27.25833,51
27.26667,51
27.27500,51
27.28333,50
27.29167,50
27.30000,50
27.30833,50
27.31667,50
27.32500,49
27.33333,49
27.34167,49
27.35000,49
27.35833,50
27.36667,50
27.37500,49
27.38333,49
27.39167,49
27.40000,49
27.40833,49
27.41667,49
27.42500,48
27.43333,48
27.44167,48
27.45000,48
27.45833,49
27.46667,49
27.47500,48
27.48333,48
27.49167,48
27.50000,48
27.50833,48
27.51667,47
27.52500,48
27.53333,48
27.54167,47
27.55000,47
27.55833,47
27.56667,47
27.57500,47
27.58333,47
27.59167,47
27.60000,47
27.60833,47
27.61667,47
27.62500,47
27.63333,47
27.64167,47
27.65000,47
27.65833,47
27.66667,46
27.67500,46
27.68333,46
27.69167,45
27.70000,45
27.70833,45
27.71667,45
27.72500,45
27.73333,45
27.74167,45
27.75000,45
27.75833,45
27.76667,45
27.77500,45
27.78333,45
27.79167,45
27.80000,44
27.80833,44
27.81667,44
27.82500,44
27.83333,44
27.84167,43
27.85000,43
27.85833,43
27.86667,42
27.87500,42
27.88333,41
27.89167,41
27.90000,40
27.90833,40
27.91667,39
27.92500,38
27.93333,38
27.94167,37
27.95000,36
27.95833,36
27.96667,35
27.97500,34
27.98333,34
27.99167,32
28.00000,31
28.00833,29
28.01667,28
28.02500,26
28.03333,25
28.04167,24
28.05000,22
28.05833,21
28.06667,20
28.07500,18
28.08333,16
28.09167,14
28.10000,12
28.10833,9
28.11667,7
28.12500,5
28.13333,3
28.14167,1
28.15000,-1
28.15833,-4
28.16667,-7
28.17500,-10
28.18333,-13
28.19167,-17
28.20000,-20
28.20833,-23
28.21667,-26
28.22500,-29
28.23333,-32
28.24167,-36
28.25000,-39
28.25833,-43
28.26667,-46
28.27500,-49
28.28333,-53
28.29167,-56
28.30000,-59
28.30833,-62
28.31667,-65
28.32500,-69
28.33333,-72
28.34167,-75
28.35000,-78
28.35833,-81
28.36667,-84
28.37500,-87
28.38333,-90
28.39167,-92
28.40000,-95
28.40833,-97
28.41667,-100
28.42500,-102
28.43333,-104
28.44167,-106
28.45000,-108
28.45833,-109
28.46667,-111
28.47500,-112
28.48333,-113
28.49167,-114
28.50000,-115
28.50833,-115
28.51667,-115
28.52500,-116
28.53333,-115
28.54167,-115
28.55000,-114
28.55833,-114
28.56667,-113
28.57500,-112
28.58333,-112
28.59167,-111
28.60000,-109
28.60833,-108
28.61667,-106
28.62500,-104
28.63333,-103
28.64167,-101
28.65000,-99
28.65833,-97
28.66667,-95
28.67500,-92
28.68333,-89
28.69167,-86
28.70000,-84
28.70833,-81
28.71667,-78
28.72500,-75
28.73333,-72
28.74167,-69
28.75000,-67
28.75833,-64
28.76667,-61
28.77500,-59
28.78333,-56
28.79167,-53
28.80000,-50
28.80833,-47
28.81667,-45
28.82500,-42
28.83333,-40
28.84167,-37
28.85000,-35
28.85833,-33
28.86667,-30
28.87500,-28
28.88333,-25
28.89167,-23
28.90000,-21
28.90833,-19
28.91667,-17
28.92500,-15
28.93333,-13
28.94167,-11
28.95000,-9
28.95833,-7
28.96667,-5
28.97500,-4
28.98333,-2
28.99167,-0
29.00000,1
29.00833,3
29.01667,4
29.02500,6
29.03333,7
29.04167,8
29.05000,9
29.05833,10
29.06667,11
29.07500,12
29.08333,13
29.09167,14
29.10000,15
29.10833,16
29.11667,17
29.12500,18
29.13333,18
29.14167,19
29.15000,20
29.15833,20
29.16667,21
29.17500,21
29.18333,22
29.19167,22
29.20000,23
29.20833,23
29.21667,24
29.22500,24
29.23333,25
29.24167,25
29.25000,25
29.25833,26
29.26667,26
29.27500,26
29.28333,26
29.29167,26
29.30000,26
29.30833,26
29.31667,26
29.32500,26
29.33333,26
29.34167,26
29.35000,26
29.35833,26
29.36667,27
29.37500,27
29.38333,27
29.39167,27
29.40000,28
29.40833,28
29.41667,28
29.42500,28
29.43333,28
29.44167,29
29.45000,29
29.45833,28
29.46667,28
29.47500,28
29.48333,28
29.49167,28
29.50000,28
29.50833,28
29.51667,28
29.52500,28
29.53333,28
29.54167,27
29.55000,27
29.55833,27
29.56667,27
29.57500,27
29.58333,27
29.59167,26
29.60000,26
29.60833,26
29.61667,26
29.62500,25
29.63333,25
29.64167,25
29.65000,24
29.65833,24
29.66667,24
29.67500,23
29.68333,23
29.69167,23
29.70000,22
29.70833,22
29.71667,21
29.72500,21
29.73333,20
29.74167,20
29.75000,20
29.75833,19
29.76667,19
29.77500,18
29.78333,18
29.79167,17
29.80000,17
29.80833,16
29.81667,15
29.82500,15
29.83333,14
29.84167,13
29.85000,12
29.85833,11
29.86667,10
29.87500,8
29.88333,7
29.89167,7
29.90000,6
29.90833,5
29.91667,5
29.92500,4
29.93333,3
29.94167,2
29.95000,1
29.95833,-0
29.96667,-1
29.97500,-2
29.98333,-3
29.99167,-4
30.00000,-5
30.00833,-7
30.01667,-8
30.02500,-9
30.03333,-11
30.04167,-12
30.05000,-13
30.05833,-13
30.06667,-14
30.07500,-15
30.08333,-15
30.09167,-16
30.10000,-17
30.10833,-18
30.11667,-19
30.12500,-21
30.13333,-22
30.14167,-23
30.15000,-24
30.15833,-25
30.16667,-25
30.17500,-26
30.18333,-26
30.19167,-27
30.20000,-27
30.20833,-27
30.21667,-27
30.22500,-27
30.23333,-27
30.24167,-28
30.25000,-28
30.25833,-29
30.26667,-29
30.27500,-29
30.28333,-29
30.29167,-29
30.30000,-29
30.30833,-29
30.31667,-29
30.32500,-29
30.33333,-28
30.34167,-28
30.35000,-28
30.35833,-28
30.36667,-27
30.37500,-26
30.38333,-26
30.39167,-25
30.40000,-24
30.40833,-23
30.41667,-22
30.42500,-22
30.43333,-21
30.44167,-20
30.45000,-19
30.45833,-19
30.46667,-18
30.47500,-17
30.48333,-16
30.49167,-15
30.50000,-14
30.50833,-13
30.51667,-12
30.52500,-11
30.53333,-9
30.54167,-8
30.55000,-7
30.55833,-6
30.56667,-5
30.57500,-4
30.58333,-3
30.59167,-2
30.60000,-1
30.60833,-0
30.61667,0
30.62500,1
30.63333,2
30.64167,3
30.65000,4
30.65833,5
30.66667,5
30.67500,6
30.68333,7
30.69167,8
30.70000,9
30.70833,9
30.71667,10
30.72500,11
30.73333,11
30.74167,12
30.75000,13
30.75833,14
30.76667,15
30.77500,16
30.78333,16
30.79167,17
30.80000,17
30.80833,17
30.81667,18
30.82500,18
30.83333,18
30.84167,19
30.85000,19
30.85833,20
30.86667,20
30.87500,20
30.88333,20
30.89167,21
30.90000,21
30.90833,21
30.91667,22
30.92500,22
30.93333,22
30.94167,22
30.95000,23
30.95833,23
30.96667,23
30.97500,23
30.98333,24
30.99167,24
31.00000,24
31.00833,24
31.01667,25
31.02500,25
31.03333,25
31.04167,25
31.05000,25
31.05833,25
31.06667,25
31.07500,25
31.08333,25
31.09167,25
31.10000,25
31.10833,25
31.11667,26
31.12500,26
31.13333,26
31.14167,26
31.15000,26
31.15833,26
31.16667,26
31.17500,26
31.18333,26
31.19167,26
31.20000,26
31.20833,27
31.21667,27
31.22500,27
31.23333,27
31.24167,27
31.25000,27
31.25833,27
31.26667,28
31.27500,28
31.28333,27
31.29167,27
31.30000,27
31.30833,28
31.31667,28
31.32500,28
31.33333,28
31.34167,28
31.35000,28
31.35833,28
31.36667,28
31.37500,28
31.38333,28
31.39167,29
31.40000,29
31.40833,29
31.41667,28
31.42500,28
31.43333,29
31.44167,29
31.45000,29
31.45833,29
31.46667,29
31.47500,29
31.48333,29
31.49167,29
31.50000,29
31.50833,29
31.51667,29
31.52500,29
31.53333,29
31.54167,29
31.55000,29
31.55833,29
31.56667,29
31.57500,29
31.58333,30
31.59167,30
31.60000,30
31.60833,30
31.61667,30
31.62500,30
31.63333,30
31.64167,31
31.65000,31
31.65833,31
31.66667,30
31.67500,30
31.68333,30
31.69167,30
31.70000,30
31.70833,31
31.71667,31
31.72500,31
31.73333,31
31.74167,31
31.75000,31
31.75833,31
31.76667,31
31.77500,31
31.78333,31
31.79167,32
31.80000,32
31.80833,32
31.81667,32
31.82500,32
31.83333,31
31.84167,31
31.85000,31
31.85833,31
31.86667,31
31.87500,32
31.88333,32
31.89167,31
31.90000,31
31.90833,31
31.91667,31
31.92500,31
31.93333,31
31.94167,31
31.95000,31
31.95833,31
31.96667,31
31.97500,31
31.98333,31
31.99167,31
32.00000,31
32.00833,31
32.01667,32
32.02500,32
32.03333,32
32.04167,32
32.05000,32
32.05833,31
32.06667,31
32.07500,31
32.08333,31
32.09167,32
32.10000,32
32.10833,32
32.11667,32
32.12500,32
32.13333,32
32.14167,32
32.15000,32
32.15833,33
32.16667,32
32.17500,32
32.18333,32
32.19167,31
32.20000,31
32.20833,31
32.21667,31
32.22500,31
32.23333,32
32.24167,32
32.25000,32
32.25833,32
32.26667,32
32.27500,33
32.28333,33
32.29167,33
32.30000,32
32.30833,32
32.31667,32
32.32500,32
32.33333,32
32.34167,32
32.35000,32
32.35833,32
32.36667,32
32.37500,32
32.38333,32
32.39167,32
32.40000,31
32.40833,31
32.41667,31
32.42500,31
32.43333,31
32.44167,32
32.45000,32
32.45833,32
32.46667,32
32.47500,31
32.48333,31
32.49167,31
32.50000,31
32.50833,31
32.51667,32
32.52500,32
32.53333,33
32.54167,33
32.55000,33
32.55833,33
32.56667,33
32.57500,32
32.58333,32
32.59167,32
32.60000,32
32.60833,32
32.61667,32
32.62500,32
32.63333,32
32.64167,31
32.65000,32
32.65833,32
32.66667,32
32.67500,33
32.68333,33
32.69167,33
32.70000,33
32.70833,32
32.71667,32
32.72500,32
32.73333,32
32.74167,32
32.75000,32
32.75833,32
32.76667,32
32.77500,33
32.78333,33
32.79167,33
32.80000,33
32.80833,33
32.81667,33
32.82500,33
32.83333,33
32.84167,33
32.85000,33
32.85833,33
32.86667,32
32.87500,32
32.88333,32
32.89167,33
32.90000,33
32.90833,32
32.91667,32
32.92500,32
32.93333,32
32.94167,32
32.95000,32
32.95833,32
32.96667,32
32.97500,31
32.98333,31
32.99167,32
33.00000,32
33.00833,32
33.01667,32
33.02500,32
33.03333,32
33.04167,32
33.05000,31
33.05833,31
33.06667,32
33.07500,32
33.08333,32
33.09167,32
33.10000,32
33.10833,33
33.11667,33
33.12500,33
33.13333,33
33.14167,33
33.15000,33
33.15833,32
33.16667,32
33.17500,32
33.18333,32
33.19167,32
33.20000,32
33.20833,33
33.21667,33
33.22500,33
33.23333,33
33.24167,33
33.25000,32
33.25833,32
33.26667,32
33.27500,32
33.28333,33
33.29167,33
33.30000,33
33.30833,33
33.31667,33
33.32500,33
33.33333,33
33.34167,33
33.35000,33
33.35833,33
33.36667,32
33.37500,32
33.38333,32
33.39167,32
33.40000,32
33.40833,32
33.41667,32
33.42500,32
33.43333,32
33.44167,32
33.45000,32
33.45833,33
33.46667,33
33.47500,33
33.48333,33
33.49167,32
33.50000,32
33.50833,31
33.51667,31
33.52500,32
33.53333,32
33.54167,32
33.55000,32
33.55833,32
33.56667,32
33.57500,32
33.58333,32
33.59167,32
33.60000,32
33.60833,32
33.61667,32
33.62500,32
33.63333,33
33.64167,33
33.65000,33
33.65833,33
33.66667,32
33.67500,32
33.68333,32
33.69167,32
33.70000,32
33.70833,32
33.71667,32
33.72500,32
33.73333,32
33.74167,32
33.75000,32
33.75833,32
33.76667,32
33.77500,32
33.78333,32
33.79167,32
33.80000,32
33.80833,32
33.81667,32
33.82500,32
33.83333,32
33.84167,32
33.85000,33
33.85833,33
33.86667,33
33.87500,33
33.88333,33
33.89167,33
33.90000,33
33.90833,33
33.91667,33
33.92500,33
33.93333,32
33.94167,33
33.95000,33
33.95833,32
33.96667,32
33.97500,32
33.98333,32
33.99167,32
34.00000,33
34.00833,33
34.01667,33
34.02500,32
34.03333,32
34.04167,32
34.05000,32
34.05833,32
34.06667,33
34.07500,33
34.08333,33
34.09167,33
34.10000,33
34.10833,33
34.11667,32
34.12500,32
34.13333,33
34.14167,33
34.15000,33
34.15833,33
34.16667,33
34.17500,33
34.18333,32
34.19167,32
34.20000,33
34.20833,33
34.21667,33
34.22500,33
34.23333,33
34.24167,33
34.25000,33
34.25833,33
34.26667,33
34.27500,33
34.28333,33
34.29167,33
34.30000,33
34.30833,33
34.31667,34
34.32500,34
34.33333,34
34.34167,34
34.35000,34
34.35833,33
34.36667,33
34.37500,33
34.38333,33
34.39167,33
34.40000,33
34.40833,32
34.41667,32
34.42500,32
34.43333,33
34.44167,33
34.45000,33
34.45833,33
34.46667,33
34.47500,32
34.48333,32
34.49167,33
34.50000,33
34.50833,33
34.51667,33
34.52500,33
34.53333,33
34.54167,33
34.55000,33
34.55833,32
34.56667,32
34.57500,32
34.58333,33
34.59167,33
34.60000,33
34.60833,33
34.61667,33
34.62500,33
34.63333,33
34.64167,33
34.65000,34
34.65833,34
34.66667,34
34.67500,34
34.68333,34
34.69167,34
34.70000,34
34.70833,34
34.71667,34
34.72500,33
34.73333,33
34.74167,33
34.75000,34
34.75833,34
34.76667,34
34.77500,34
34.78333,34
34.79167,34
34.80000,34
34.80833,34
34.81667,34
34.82500,34
34.83333,34
34.84167,34
34.85000,34
34.85833,34
34.86667,33
34.87500,33
34.88333,33
34.89167,33
34.90000,33
34.90833,33
34.91667,33
34.92500,33
34.93333,34
34.94167,34
34.95000,34
34.95833,34
34.96667,34
34.97500,34
34.98333,34
34.99167,34
35.00000,34
35.00833,34
35.01667,34
35.02500,35
35.03333,35
35.04167,35
35.05000,35
35.05833,35
35.06667,35
35.07500,35
35.08333,35
35.09167,35
35.10000,35
35.10833,34
35.11667,34
35.12500,34
35.13333,34
35.14167,35
35.15000,35
35.15833,35
35.16667,35
35.17500,36
35.18333,35
35.19167,35
35.20000,35
35.20833,35
35.21667,35
35.22500,35
35.23333,35
35.24167,35
35.25000,35
35.25833,35
35.26667,35
35.27500,35
35.28333,35
35.29167,35
35.30000,35
35.30833,35
35.31667,35
35.32500,34
35.33333,34
35.34167,34
35.35000,34
35.35833,34
35.36667,34
35.37500,34
35.38333,34
35.39167,34
35.40000,34
35.40833,34
35.41667,34
35.42500,34
35.43333,34
35.44167,35
35.45000,35
35.45833,35
35.46667,35
35.47500,35
35.48333,35
35.49167,35
35.50000,34
35.50833,34
35.51667,34
35.52500,35
35.53333,35
35.54167,34
35.55000,34
35.55833,34
35.56667,35
35.57500,35
35.58333,36
35.59167,36
35.60000,36
35.60833,36
35.61667,36
35.62500,36
35.63333,36
35.64167,35
35.65000,35
35.65833,35
35.66667,35
35.67500,35
35.68333,35
35.69167,35
35.70000,35
35.70833,35
35.71667,35
35.72500,35
35.73333,35
35.74167,35
35.75000,35
35.75833,35
35.76667,35
35.77500,35
35.78333,35
35.79167,35
35.80000,34
35.80833,34
35.81667,34
35.82500,34
35.83333,34
35.84167,34
35.85000,34
35.85833,34
35.86667,35
35.87500,35
35.88333,35
35.89167,35
35.90000,35
35.90833,35
35.91667,35
35.92500,35
35.93333,35
35.94167,35
35.95000,35
35.95833,35
35.96667,35
35.97500,35
35.98333,35
35.99167,35
36.00000,35
36.00833,35
36.01667,35
36.02500,35
36.03333,35
36.04167,35
36.05000,35
36.05833,34
36.06667,34
36.07500,34
36.08333,34
36.09167,34
36.10000,34
36.10833,34
36.11667,34
36.12500,34
36.13333,34
36.14167,33
36.15000,33
36.15833,33
36.16667,33
36.17500,33
36.18333,33
36.19167,33
36.20000,33
36.20833,33
36.21667,33
36.22500,33
36.23333,33
36.24167,33
36.25000,33
36.25833,33
36.26667,33
36.27500,33
36.28333,33
36.29167,33
36.30000,33
36.30833,33
36.31667,33
36.32500,33
36.33333,33
36.34167,33
36.35000,33
36.35833,33
36.36667,33
36.37500,33
36.38333,33
36.39167,33
36.40000,34
36.40833,33
36.41667,33
36.42500,33
36.43333,33
36.44167,33
36.45000,33
36.45833,34
36.46667,34
36.47500,34
36.48333,33
36.49167,33
36.50000,33
36.50833,33
36.51667,33
36.52500,33
36.53333,33
36.54167,33
36.55000,33
36.55833,34
36.56667,34
36.57500,34
36.58333,34
36.59167,34
36.60000,34
36.60833,34
36.61667,34
36.62500,34
36.63333,34
36.64167,34
36.65000,34
36.65833,34
36.66667,34
36.67500,34
36.68333,34
36.69167,34
36.70000,34
36.70833,34
36.71667,34
36.72500,34
36.73333,34
36.74167,34
36.75000,34
36.75833,34
36.76667,34
36.77500,34
36.78333,34
36.79167,34
36.80000,34
36.80833,34
36.81667,34
36.82500,34
36.83333,35
36.84167,35
36.85000,35
36.85833,36
36.86667,35
36.87500,35
36.88333,35
36.89167,35
36.90000,35
36.90833,35
36.91667,35
36.92500,35
36.93333,35
36.94167,35
36.95000,35
36.95833,35
36.96667,35
36.97500,35
36.98333,35
36.99167,35
37.00000,35
37.00833,35
37.01667,35
37.02500,35
37.03333,35
37.04167,35
37.05000,35
37.05833,35
37.06667,35
37.07500,35
37.08333,35
37.09167,35
37.10000,36
37.10833,36
37.11667,36
37.12500,36
37.13333,36
37.14167,36
37.15000,36
37.15833,36
37.16667,36
37.17500,36
37.18333,36
37.19167,37
37.20000,37
37.20833,37
37.21667,37
37.22500,37
37.23333,37
37.24167,37
37.25000,37
37.25833,36
37.26667,36
37.27500,36
37.28333,36
37.29167,36
37.30000,36
37.30833,36
37.31667,36
37.32500,36
37.33333,36
37.34167,36
37.35000,36
37.35833,36
37.36667,36
37.37500,36
37.38333,36
37.39167,36
37.40000,36
37.40833,37
37.41667,37
37.42500,37
37.43333,37
37.44167,36
37.45000,36
37.45833,36
37.46667,36
37.47500,36
37.48333,36
37.49167,36
37.50000,36
37.50833,36
37.51667,36
37.52500,36
37.53333,36
37.54167,36
37.55000,36
37.55833,36
37.56667,36
37.57500,36
37.58333,36
37.59167,36
37.60000,36
37.60833,36
37.61667,35
37.62500,35
37.63333,35
37.64167,35
37.65000,35
37.65833,35
37.66667,35
37.67500,35
37.68333,35
37.69167,36
37.70000,36
37.70833,35
37.71667,35
37.72500,35
37.73333,35
37.74167,35
37.75000,35
37.75833,35
37.76667,35
37.77500,35
37.78333,35
37.79167,36
37.80000,36
37.80833,35
37.81667,35
37.82500,36
37.83333,36
37.84167,36
37.85000,36
37.85833,36
37.86667,36
37.87500,36
37.88333,36
37.89167,36
37.90000,35
37.90833,35
37.91667,35
37.92500,35
37.93333,35
37.94167,35
37.95000,35
37.95833,35
37.96667,35
37.97500,35
37.98333,35
37.99167,35
38.00000,35
38.00833,35
38.01667,35
38.02500,35
38.03333,35
38.04167,35
38.05000,35
38.05833,35
38.06667,35
38.07500,35
38.08333,35
38.09167,36
38.10000,36
38.10833,36
38.11667,35
38.12500,35
38.13333,35
38.14167,35
38.15000,35
38.15833,36
38.16667,36
38.17500,37
38.18333,37
38.19167,37
38.20000,37
38.20833,37
38.21667,37
38.22500,37
38.23333,37
38.24167,38
38.25000,38
38.25833,37
38.26667,37
38.27500,36
38.28333,36
38.29167,36
38.30000,37
38.30833,37
38.31667,37
38.32500,37
38.33333,37
38.34167,37
38.35000,37
38.35833,37
38.36667,37
38.37500,37
38.38333,37
38.39167,38
38.40000,38
38.40833,38
38.41667,38
38.42500,38
38.43333,38
38.44167,38
38.45000,37
38.45833,37
38.46667,37
38.47500,38
38.48333,38
38.49167,38
38.50000,38
38.50833,38
38.51667,39
38.52500,38
38.53333,38
38.54167,39
38.55000,39
38.55833,39
38.56667,39
38.57500,39
38.58333,39
38.59167,39
38.60000,39
38.60833,39
38.61667,39
38.62500,39
38.63333,40
38.64167,40
38.65000,40
38.65833,40
38.66667,39
38.67500,39
38.68333,39
38.69167,39
38.70000,39
38.70833,39
38.71667,39
38.72500,39
38.73333,39
38.74167,39
38.75000,39
38.75833,39
38.76667,39
38.77500,39
38.78333,39
38.79167,39
38.80000,39
38.80833,39
38.81667,38
38.82500,38
38.83333,38
38.84167,38
38.85000,38
38.85833,38
38.86667,38
38.87500,38
38.88333,38
38.89167,38
38.90000,38
38.90833,38
38.91667,38
38.92500,38
38.93333,38
38.94167,38
38.95000,38
38.95833,37
38.96667,37
38.97500,37
38.98333,37
38.99167,37
39.00000,37
39.00833,38
39.01667,38
39.02500,38
39.03333,38
39.04167,38
39.05000,38
39.05833,38
39.06667,38
39.07500,38
39.08333,38
39.09167,38
39.10000,38
39.10833,38
39.11667,37
39.12500,37
39.13333,37
39.14167,37
39.15000,38
39.15833,38
39.16667,38
39.17500,37
39.18333,37
39.19167,37
39.20000,38
39.20833,38
39.21667,38
39.22500,38
39.23333,38
39.24167,37
39.25000,37
39.25833,37
39.26667,37
39.27500,37
39.28333,37
39.29167,37
39.30000,37
39.30833,37
39.31667,37
39.32500,37
39.33333,37
39.34167,37
39.35000,37
39.35833,37
39.36667,36
39.37500,37
39.38333,37
39.39167,37
39.40000,37
39.40833,37
39.41667,37
39.42500,37
39.43333,37
39.44167,37
39.45000,37
39.45833,37
39.46667,37
39.47500,37
39.48333,36
39.49167,36
39.50000,36
39.50833,36
39.51667,36
39.52500,36
39.53333,36
39.54167,36
39.55000,36
39.55833,37
39.56667,36
39.57500,37
39.58333,37
39.59167,37
39.60000,37
39.60833,37
39.61667,37
39.62500,37
39.63333,38
39.64167,38
39.65000,38
39.65833,38
39.66667,38
39.67500,38
39.68333,37
39.69167,38
39.70000,38
39.70833,38
39.71667,38
39.72500,38
39.73333,38
39.74167,38
39.75000,38
39.75833,38
39.76667,38
39.77500,38
39.78333,38
39.79167,38
39.80000,38
39.80833,38
39.81667,37
39.82500,37
39.83333,37
39.84167,38
39.85000,38
39.85833,38
39.86667,38
39.87500,38
39.88333,38
39.89167,38
39.90000,37
39.90833,37
39.91667,37
39.92500,37
39.93333,37
39.94167,37
39.95000,36
39.95833,37
39.96667,37
39.97500,37
39.98333,37
39.99167,37
40.00000,37

[Fraction Collection Report]
# of Fractions,0
