[Header]
Application Name,LabSolutions
Version,5.97 SP1
Data File Name,C:\Users\cremerlab\Desktop\griffin\2021-03-26_calibration\2021-03-26_calibration_3262021_004_004.lcd
Output Date,3/26/2021
Output Time,8:25:36 PM

[File Information]
Type,Data File
Generated,3/26/2021 7:45:16 PM
Generated by,System Administrator
Modified,3/26/2021 8:25:36 PM
Modified by,System Administrator

[Sample Information]
Operator Name,System Administrator
Acquired,3/26/2021 7:45:35 PM
Sample Type,1:Standard
Level,4
Sample Name,2021-03-26_calibration_15mM
Sample ID,004
ISTD Amount1,1
ISTD Amount2,1
ISTD Amount3,1
ISTD Amount4,1
ISTD Amount5,1
ISTD Amount6,1
ISTD Amount7,1
ISTD Amount8,1
ISTD Amount9,1
ISTD Amount10,1
ISTD Amount11,1
ISTD Amount12,1
ISTD Amount13,1
ISTD Amount14,1
ISTD Amount15,1
ISTD Amount16,1
ISTD Amount17,1
ISTD Amount18,1
ISTD Amount19,1
ISTD Amount20,1
ISTD Amount21,1
ISTD Amount22,1
ISTD Amount23,1
ISTD Amount24,1
ISTD Amount25,1
ISTD Amount26,1
ISTD Amount27,1
ISTD Amount28,1
ISTD Amount29,1
ISTD Amount30,1
ISTD Amount31,1
ISTD Amount32,1
Sample Amount,1
Dilution Factor,1
Vial#,4
Injection Volume,20

[Original Files]
Data File,C:\Users\cremerlab\Desktop\griffin\2021-03-26_calibration\2021-03-26_calibration_3262021_004_004.lcd
Method File,C:\LabSolutions\Data\Project1\organicacidsetc2.lcm
Batch File,C:\Users\cremerlab\Desktop\griffin\2021-03-26_calibration\2021-03-26_calibration.lcb
Report Format File,c:\LabSolutions\System\DEFAULT.lsr

[File Description]


[Configuration]
Instrument Name,HPLC-PC-Instrument1
Instrument #,1
Line #,1
# of Detectors,2
Detector ID,Detector A,Detector B
Detector Name,Detector A,Detector B
# of Channels,1,1

[LC Chromatogram(Detector B-Ch1)]
Interval(msec),500
# of Points,4801
Start Time(min),0.000
End Time(min),40.000
Intensity Units,mV
Intensity Multiplier,0.001
R.Time (min),Intensity
0.00000,-1
0.00833,-1
0.01667,0
0.02500,0
0.03333,1
0.04167,1
0.05000,0
0.05833,0
0.06667,0
0.07500,0
0.08333,-0
0.09167,-0
0.10000,-0
0.10833,-0
0.11667,-0
0.12500,-0
0.13333,-0
0.14167,-0
0.15000,-0
0.15833,0
0.16667,0
0.17500,0
0.18333,0
0.19167,0
0.20000,0
0.20833,-0
0.21667,-0
0.22500,-0
0.23333,-0
0.24167,-0
0.25000,-0
0.25833,0
0.26667,1
0.27500,1
0.28333,1
0.29167,1
0.30000,1
0.30833,1
0.31667,1
0.32500,1
0.33333,1
0.34167,1
0.35000,1
0.35833,1
0.36667,1
0.37500,1
0.38333,1
0.39167,1
0.40000,1
0.40833,1
0.41667,1
0.42500,0
0.43333,0
0.44167,1
0.45000,1
0.45833,1
0.46667,1
0.47500,1
0.48333,2
0.49167,2
0.50000,2
0.50833,2
0.51667,1
0.52500,1
0.53333,1
0.54167,2
0.55000,2
0.55833,2
0.56667,2
0.57500,1
0.58333,1
0.59167,1
0.60000,1
0.60833,1
0.61667,1
0.62500,1
0.63333,1
0.64167,1
0.65000,1
0.65833,1
0.66667,0
0.67500,0
0.68333,0
0.69167,1
0.70000,1
0.70833,0
0.71667,0
0.72500,0
0.73333,0
0.74167,0
0.75000,0
0.75833,0
0.76667,0
0.77500,0
0.78333,1
0.79167,0
0.80000,0
0.80833,0
0.81667,0
0.82500,0
0.83333,0
0.84167,0
0.85000,0
0.85833,0
0.86667,0
0.87500,0
0.88333,1
0.89167,1
0.90000,1
0.90833,1
0.91667,0
0.92500,0
0.93333,0
0.94167,0
0.95000,-0
0.95833,-0
0.96667,-0
0.97500,-0
0.98333,-0
0.99167,-0
1.00000,0
1.00833,1
1.01667,1
1.02500,0
1.03333,0
1.04167,0
1.05000,0
1.05833,0
1.06667,0
1.07500,0
1.08333,0
1.09167,0
1.10000,0
1.10833,0
1.11667,0
1.12500,0
1.13333,0
1.14167,0
1.15000,0
1.15833,0
1.16667,0
1.17500,0
1.18333,0
1.19167,1
1.20000,1
1.20833,1
1.21667,1
1.22500,0
1.23333,0
1.24167,0
1.25000,0
1.25833,0
1.26667,1
1.27500,1
1.28333,1
1.29167,1
1.30000,1
1.30833,1
1.31667,0
1.32500,1
1.33333,1
1.34167,1
1.35000,1
1.35833,0
1.36667,0
1.37500,0
1.38333,0
1.39167,-0
1.40000,-0
1.40833,-0
1.41667,0
1.42500,0
1.43333,0
1.44167,0
1.45000,0
1.45833,0
1.46667,1
1.47500,1
1.48333,1
1.49167,0
1.50000,0
1.50833,-0
1.51667,-0
1.52500,0
1.53333,0
1.54167,0
1.55000,0
1.55833,0
1.56667,0
1.57500,1
1.58333,1
1.59167,2
1.60000,2
1.60833,2
1.61667,1
1.62500,1
1.63333,1
1.64167,1
1.65000,1
1.65833,1
1.66667,1
1.67500,1
1.68333,1
1.69167,2
1.70000,2
1.70833,2
1.71667,2
1.72500,2
1.73333,2
1.74167,2
1.75000,1
1.75833,1
1.76667,1
1.77500,1
1.78333,1
1.79167,1
1.80000,1
1.80833,1
1.81667,2
1.82500,2
1.83333,2
1.84167,2
1.85000,2
1.85833,2
1.86667,2
1.87500,1
1.88333,1
1.89167,1
1.90000,1
1.90833,1
1.91667,2
1.92500,2
1.93333,2
1.94167,2
1.95000,2
1.95833,2
1.96667,2
1.97500,2
1.98333,2
1.99167,2
2.00000,2
2.00833,2
2.01667,2
2.02500,1
2.03333,1
2.04167,1
2.05000,1
2.05833,0
2.06667,0
2.07500,-0
2.08333,0
2.09167,0
2.10000,0
2.10833,1
2.11667,1
2.12500,1
2.13333,1
2.14167,0
2.15000,-0
2.15833,-0
2.16667,-0
2.17500,-1
2.18333,-0
2.19167,-0
2.20000,0
2.20833,0
2.21667,1
2.22500,0
2.23333,0
2.24167,0
2.25000,0
2.25833,-0
2.26667,-0
2.27500,-0
2.28333,-1
2.29167,-1
2.30000,-1
2.30833,-1
2.31667,-0
2.32500,0
2.33333,0
2.34167,0
2.35000,-0
2.35833,-0
2.36667,-1
2.37500,-1
2.38333,-0
2.39167,-0
2.40000,-0
2.40833,-0
2.41667,-0
2.42500,-0
2.43333,-0
2.44167,0
2.45000,0
2.45833,0
2.46667,0
2.47500,0
2.48333,0
2.49167,0
2.50000,0
2.50833,0
2.51667,0
2.52500,0
2.53333,-0
2.54167,-0
2.55000,-1
2.55833,-1
2.56667,-1
2.57500,-0
2.58333,-0
2.59167,-0
2.60000,-0
2.60833,-0
2.61667,-0
2.62500,-0
2.63333,-0
2.64167,-0
2.65000,-1
2.65833,-1
2.66667,-1
2.67500,-1
2.68333,-1
2.69167,-1
2.70000,-1
2.70833,-1
2.71667,-1
2.72500,-1
2.73333,-1
2.74167,-1
2.75000,-0
2.75833,-0
2.76667,0
2.77500,0
2.78333,0
2.79167,-0
2.80000,-0
2.80833,-1
2.81667,-1
2.82500,-1
2.83333,-1
2.84167,-1
2.85000,-1
2.85833,-1
2.86667,-1
2.87500,-1
2.88333,-1
2.89167,-1
2.90000,-1
2.90833,-1
2.91667,-0
2.92500,-0
2.93333,-0
2.94167,-0
2.95000,-0
2.95833,-0
2.96667,0
2.97500,0
2.98333,0
2.99167,0
3.00000,0
3.00833,0
3.01667,0
3.02500,0
3.03333,0
3.04167,0
3.05000,0
3.05833,0
3.06667,0
3.07500,0
3.08333,0
3.09167,0
3.10000,-0
3.10833,-0
3.11667,-0
3.12500,-0
3.13333,-0
3.14167,-0
3.15000,-0
3.15833,-0
3.16667,-0
3.17500,-0
3.18333,-0
3.19167,-0
3.20000,-0
3.20833,-0
3.21667,-0
3.22500,0
3.23333,0
3.24167,0
3.25000,0
3.25833,-0
3.26667,-0
3.27500,-0
3.28333,-0
3.29167,-0
3.30000,-0
3.30833,-0
3.31667,-0
3.32500,-0
3.33333,-0
3.34167,-0
3.35000,-0
3.35833,0
3.36667,-0
3.37500,-0
3.38333,-0
3.39167,-1
3.40000,-1
3.40833,-1
3.41667,-2
3.42500,-2
3.43333,-2
3.44167,-2
3.45000,-1
3.45833,-1
3.46667,-1
3.47500,-1
3.48333,-0
3.49167,-0
3.50000,-0
3.50833,-0
3.51667,-0
3.52500,-0
3.53333,0
3.54167,0
3.55000,0
3.55833,0
3.56667,0
3.57500,0
3.58333,0
3.59167,-0
3.60000,-0
3.60833,-1
3.61667,-1
3.62500,-1
3.63333,-1
3.64167,-1
3.65000,-1
3.65833,-0
3.66667,-0
3.67500,-0
3.68333,-0
3.69167,-1
3.70000,-1
3.70833,-1
3.71667,-1
3.72500,-1
3.73333,-1
3.74167,-1
3.75000,-1
3.75833,-1
3.76667,-1
3.77500,-1
3.78333,-1
3.79167,-2
3.80000,-2
3.80833,-2
3.81667,-2
3.82500,-2
3.83333,-1
3.84167,-1
3.85000,-1
3.85833,-1
3.86667,-1
3.87500,-0
3.88333,-0
3.89167,-0
3.90000,-1
3.90833,-1
3.91667,-1
3.92500,-1
3.93333,-1
3.94167,-1
3.95000,-1
3.95833,-1
3.96667,-1
3.97500,-2
3.98333,-1
3.99167,-1
4.00000,-1
4.00833,-1
4.01667,-1
4.02500,-1
4.03333,-1
4.04167,-1
4.05000,-1
4.05833,-1
4.06667,-1
4.07500,-1
4.08333,-1
4.09167,-1
4.10000,-1
4.10833,-1
4.11667,-1
4.12500,-1
4.13333,-1
4.14167,-1
4.15000,-1
4.15833,-1
4.16667,-1
4.17500,-1
4.18333,-1
4.19167,-1
4.20000,-1
4.20833,-1
4.21667,-1
4.22500,-1
4.23333,-1
4.24167,-1
4.25000,-1
4.25833,-1
4.26667,-1
4.27500,-1
4.28333,-1
4.29167,-1
4.30000,-1
4.30833,-1
4.31667,-1
4.32500,-1
4.33333,-1
4.34167,-1
4.35000,-1
4.35833,-1
4.36667,-0
4.37500,-0
4.38333,-0
4.39167,0
4.40000,0
4.40833,1
4.41667,1
4.42500,1
4.43333,1
4.44167,1
4.45000,1
4.45833,1
4.46667,0
4.47500,0
4.48333,-0
4.49167,-0
4.50000,-0
4.50833,-0
4.51667,-1
4.52500,-0
4.53333,-0
4.54167,-0
4.55000,0
4.55833,0
4.56667,-0
4.57500,-0
4.58333,-0
4.59167,-0
4.60000,0
4.60833,-0
4.61667,-0
4.62500,-0
4.63333,0
4.64167,-0
4.65000,-0
4.65833,-0
4.66667,-0
4.67500,0
4.68333,0
4.69167,0
4.70000,0
4.70833,0
4.71667,0
4.72500,0
4.73333,1
4.74167,1
4.75000,1
4.75833,0
4.76667,0
4.77500,1
4.78333,1
4.79167,1
4.80000,1
4.80833,1
4.81667,1
4.82500,1
4.83333,1
4.84167,1
4.85000,1
4.85833,1
4.86667,1
4.87500,1
4.88333,1
4.89167,1
4.90000,1
4.90833,1
4.91667,1
4.92500,1
4.93333,1
4.94167,1
4.95000,1
4.95833,1
4.96667,1
4.97500,1
4.98333,1
4.99167,0
5.00000,0
5.00833,-0
5.01667,0
5.02500,0
5.03333,0
5.04167,0
5.05000,0
5.05833,0
5.06667,0
5.07500,0
5.08333,0
5.09167,0
5.10000,0
5.10833,0
5.11667,0
5.12500,1
5.13333,1
5.14167,1
5.15000,1
5.15833,1
5.16667,1
5.17500,1
5.18333,1
5.19167,0
5.20000,0
5.20833,0
5.21667,-0
5.22500,-0
5.23333,-0
5.24167,0
5.25000,0
5.25833,0
5.26667,0
5.27500,0
5.28333,0
5.29167,0
5.30000,0
5.30833,0
5.31667,0
5.32500,0
5.33333,0
5.34167,0
5.35000,0
5.35833,0
5.36667,-0
5.37500,0
5.38333,0
5.39167,0
5.40000,0
5.40833,0
5.41667,1
5.42500,1
5.43333,1
5.44167,1
5.45000,1
5.45833,1
5.46667,1
5.47500,1
5.48333,1
5.49167,1
5.50000,1
5.50833,0
5.51667,0
5.52500,1
5.53333,1
5.54167,1
5.55000,1
5.55833,1
5.56667,2
5.57500,2
5.58333,2
5.59167,2
5.60000,2
5.60833,2
5.61667,2
5.62500,1
5.63333,1
5.64167,1
5.65000,1
5.65833,2
5.66667,2
5.67500,2
5.68333,2
5.69167,2
5.70000,2
5.70833,2
5.71667,2
5.72500,2
5.73333,2
5.74167,2
5.75000,1
5.75833,1
5.76667,1
5.77500,1
5.78333,1
5.79167,1
5.80000,1
5.80833,1
5.81667,1
5.82500,1
5.83333,1
5.84167,1
5.85000,1
5.85833,1
5.86667,1
5.87500,1
5.88333,1
5.89167,1
5.90000,1
5.90833,0
5.91667,0
5.92500,1
5.93333,1
5.94167,1
5.95000,1
5.95833,1
5.96667,1
5.97500,1
5.98333,1
5.99167,1
6.00000,1
6.00833,2
6.01667,2
6.02500,2
6.03333,1
6.04167,1
6.05000,1
6.05833,1
6.06667,2
6.07500,1
6.08333,1
6.09167,1
6.10000,1
6.10833,1
6.11667,1
6.12500,1
6.13333,1
6.14167,1
6.15000,1
6.15833,1
6.16667,1
6.17500,1
6.18333,2
6.19167,2
6.20000,2
6.20833,1
6.21667,1
6.22500,1
6.23333,1
6.24167,1
6.25000,1
6.25833,1
6.26667,1
6.27500,1
6.28333,1
6.29167,1
6.30000,1
6.30833,1
6.31667,1
6.32500,1
6.33333,1
6.34167,1
6.35000,1
6.35833,1
6.36667,0
6.37500,0
6.38333,1
6.39167,0
6.40000,0
6.40833,1
6.41667,1
6.42500,1
6.43333,1
6.44167,1
6.45000,1
6.45833,2
6.46667,2
6.47500,2
6.48333,2
6.49167,2
6.50000,2
6.50833,1
6.51667,1
6.52500,1
6.53333,1
6.54167,1
6.55000,1
6.55833,1
6.56667,1
6.57500,1
6.58333,1
6.59167,1
6.60000,1
6.60833,1
6.61667,1
6.62500,1
6.63333,1
6.64167,1
6.65000,1
6.65833,1
6.66667,1
6.67500,1
6.68333,1
6.69167,1
6.70000,1
6.70833,1
6.71667,1
6.72500,1
6.73333,1
6.74167,1
6.75000,1
6.75833,1
6.76667,1
6.77500,1
6.78333,1
6.79167,1
6.80000,1
6.80833,1
6.81667,2
6.82500,2
6.83333,2
6.84167,2
6.85000,1
6.85833,2
6.86667,2
6.87500,2
6.88333,2
6.89167,1
6.90000,1
6.90833,1
6.91667,1
6.92500,1
6.93333,1
6.94167,1
6.95000,1
6.95833,1
6.96667,1
6.97500,1
6.98333,1
6.99167,1
7.00000,1
7.00833,1
7.01667,1
7.02500,1
7.03333,1
7.04167,1
7.05000,1
7.05833,1
7.06667,1
7.07500,1
7.08333,1
7.09167,1
7.10000,1
7.10833,2
7.11667,2
7.12500,1
7.13333,1
7.14167,1
7.15000,1
7.15833,2
7.16667,2
7.17500,2
7.18333,2
7.19167,2
7.20000,2
7.20833,2
7.21667,2
7.22500,2
7.23333,1
7.24167,1
7.25000,1
7.25833,1
7.26667,1
7.27500,1
7.28333,1
7.29167,1
7.30000,2
7.30833,2
7.31667,2
7.32500,2
7.33333,2
7.34167,1
7.35000,1
7.35833,1
7.36667,1
7.37500,2
7.38333,2
7.39167,2
7.40000,2
7.40833,2
7.41667,2
7.42500,2
7.43333,2
7.44167,2
7.45000,2
7.45833,2
7.46667,2
7.47500,2
7.48333,1
7.49167,1
7.50000,1
7.50833,1
7.51667,1
7.52500,1
7.53333,1
7.54167,0
7.55000,0
7.55833,0
7.56667,1
7.57500,1
7.58333,1
7.59167,1
7.60000,1
7.60833,1
7.61667,1
7.62500,1
7.63333,1
7.64167,1
7.65000,1
7.65833,1
7.66667,1
7.67500,1
7.68333,1
7.69167,1
7.70000,1
7.70833,1
7.71667,1
7.72500,0
7.73333,0
7.74167,0
7.75000,0
7.75833,0
7.76667,-0
7.77500,-0
7.78333,0
7.79167,0
7.80000,0
7.80833,0
7.81667,0
7.82500,0
7.83333,0
7.84167,0
7.85000,0
7.85833,0
7.86667,0
7.87500,0
7.88333,0
7.89167,0
7.90000,0
7.90833,-0
7.91667,-0
7.92500,-0
7.93333,0
7.94167,0
7.95000,0
7.95833,0
7.96667,0
7.97500,0
7.98333,0
7.99167,0
8.00000,0
8.00833,0
8.01667,1
8.02500,1
8.03333,1
8.04167,0
8.05000,0
8.05833,0
8.06667,-0
8.07500,-0
8.08333,-1
8.09167,-1
8.10000,-1
8.10833,-1
8.11667,-1
8.12500,-1
8.13333,-1
8.14167,-1
8.15000,-1
8.15833,-0
8.16667,-0
8.17500,-0
8.18333,0
8.19167,0
8.20000,0
8.20833,0
8.21667,0
8.22500,0
8.23333,0
8.24167,0
8.25000,-0
8.25833,-0
8.26667,0
8.27500,-0
8.28333,-0
8.29167,0
8.30000,0
8.30833,-0
8.31667,-0
8.32500,-0
8.33333,-0
8.34167,-0
8.35000,-0
8.35833,-0
8.36667,-0
8.37500,-0
8.38333,-0
8.39167,-0
8.40000,-0
8.40833,-0
8.41667,-0
8.42500,-0
8.43333,-0
8.44167,-0
8.45000,-0
8.45833,-0
8.46667,-1
8.47500,-1
8.48333,-1
8.49167,-1
8.50000,-1
8.50833,-1
8.51667,-1
8.52500,-1
8.53333,-1
8.54167,-1
8.55000,-1
8.55833,-1
8.56667,-1
8.57500,-1
8.58333,-1
8.59167,-1
8.60000,-1
8.60833,-1
8.61667,-1
8.62500,-1
8.63333,-1
8.64167,-1
8.65000,-0
8.65833,-0
8.66667,0
8.67500,-0
8.68333,-0
8.69167,-0
8.70000,-0
8.70833,-0
8.71667,-0
8.72500,-0
8.73333,-0
8.74167,0
8.75000,0
8.75833,-0
8.76667,-0
8.77500,-0
8.78333,-1
8.79167,-1
8.80000,-1
8.80833,-1
8.81667,-1
8.82500,-1
8.83333,-1
8.84167,-0
8.85000,-0
8.85833,-0
8.86667,-0
8.87500,-0
8.88333,-0
8.89167,-0
8.90000,-0
8.90833,0
8.91667,0
8.92500,0
8.93333,0
8.94167,0
8.95000,0
8.95833,0
8.96667,0
8.97500,0
8.98333,0
8.99167,0
9.00000,0
9.00833,0
9.01667,-0
9.02500,-0
9.03333,-1
9.04167,-1
9.05000,-1
9.05833,-1
9.06667,-1
9.07500,-1
9.08333,-1
9.09167,-1
9.10000,-1
9.10833,-1
9.11667,-1
9.12500,-1
9.13333,-1
9.14167,-0
9.15000,-0
9.15833,-0
9.16667,-1
9.17500,-1
9.18333,-1
9.19167,-0
9.20000,-0
9.20833,-0
9.21667,-0
9.22500,-0
9.23333,-1
9.24167,-1
9.25000,-1
9.25833,-1
9.26667,-0
9.27500,-0
9.28333,-0
9.29167,-1
9.30000,-0
9.30833,-0
9.31667,0
9.32500,0
9.33333,0
9.34167,0
9.35000,0
9.35833,0
9.36667,0
9.37500,0
9.38333,0
9.39167,0
9.40000,-0
9.40833,-0
9.41667,-0
9.42500,-0
9.43333,-0
9.44167,-0
9.45000,-0
9.45833,-0
9.46667,-0
9.47500,-0
9.48333,-0
9.49167,-0
9.50000,-0
9.50833,-0
9.51667,0
9.52500,0
9.53333,0
9.54167,0
9.55000,0
9.55833,-0
9.56667,-0
9.57500,-0
9.58333,-0
9.59167,-0
9.60000,-0
9.60833,-0
9.61667,-0
9.62500,-0
9.63333,0
9.64167,0
9.65000,-0
9.65833,-0
9.66667,-0
9.67500,-0
9.68333,-0
9.69167,-0
9.70000,-1
9.70833,-1
9.71667,-1
9.72500,-0
9.73333,-0
9.74167,-0
9.75000,-0
9.75833,-0
9.76667,-0
9.77500,-0
9.78333,-0
9.79167,0
9.80000,0
9.80833,1
9.81667,1
9.82500,1
9.83333,1
9.84167,1
9.85000,1
9.85833,1
9.86667,1
9.87500,1
9.88333,1
9.89167,1
9.90000,1
9.90833,1
9.91667,1
9.92500,1
9.93333,1
9.94167,1
9.95000,0
9.95833,0
9.96667,0
9.97500,0
9.98333,0
9.99167,0
10.00000,1
10.00833,1
10.01667,0
10.02500,0
10.03333,0
10.04167,0
10.05000,0
10.05833,-0
10.06667,-0
10.07500,-0
10.08333,-1
10.09167,-1
10.10000,-1
10.10833,-1
10.11667,-1
10.12500,-0
10.13333,-0
10.14167,0
10.15000,0
10.15833,-0
10.16667,-0
10.17500,-1
10.18333,-1
10.19167,-1
10.20000,-1
10.20833,-1
10.21667,-1
10.22500,-1
10.23333,-1
10.24167,-1
10.25000,-0
10.25833,-0
10.26667,0
10.27500,0
10.28333,0
10.29167,0
10.30000,0
10.30833,-0
10.31667,-0
10.32500,-1
10.33333,-1
10.34167,-1
10.35000,-0
10.35833,-0
10.36667,-0
10.37500,-0
10.38333,-0
10.39167,-0
10.40000,0
10.40833,-0
10.41667,-0
10.42500,-0
10.43333,-0
10.44167,-0
10.45000,-0
10.45833,-1
10.46667,-1
10.47500,-2
10.48333,-2
10.49167,-3
10.50000,-3
10.50833,-4
10.51667,-5
10.52500,-5
10.53333,-6
10.54167,-8
10.55000,-9
10.55833,-11
10.56667,-14
10.57500,-17
10.58333,-21
10.59167,-27
10.60000,-35
10.60833,-46
10.61667,-61
10.62500,-80
10.63333,-106
10.64167,-140
10.65000,-185
10.65833,-244
10.66667,-320
10.67500,-418
10.68333,-542
10.69167,-697
10.70000,-890
10.70833,-1127
10.71667,-1415
10.72500,-1760
10.73333,-2170
10.74167,-2651
10.75000,-3207
10.75833,-3843
10.76667,-4562
10.77500,-5363
10.78333,-6245
10.79167,-7203
10.80000,-8230
10.80833,-9315
10.81667,-10447
10.82500,-11610
10.83333,-12788
10.84167,-13963
10.85000,-15117
10.85833,-16231
10.86667,-17286
10.87500,-18267
10.88333,-19157
10.89167,-19942
10.90000,-20613
10.90833,-21161
10.91667,-21579
10.92500,-21865
10.93333,-22018
10.94167,-22041
10.95000,-21938
10.95833,-21715
10.96667,-21380
10.97500,-20942
10.98333,-20411
10.99167,-19798
11.00000,-19114
11.00833,-18371
11.01667,-17580
11.02500,-16752
11.03333,-15898
11.04167,-15028
11.05000,-14151
11.05833,-13276
11.06667,-12410
11.07500,-11561
11.08333,-10733
11.09167,-9933
11.10000,-9164
11.10833,-8430
11.11667,-7733
11.12500,-7075
11.13333,-6456
11.14167,-5878
11.15000,-5340
11.15833,-4841
11.16667,-4381
11.17500,-3959
11.18333,-3572
11.19167,-3220
11.20000,-2899
11.20833,-2609
11.21667,-2348
11.22500,-2112
11.23333,-1900
11.24167,-1710
11.25000,-1540
11.25833,-1389
11.26667,-1254
11.27500,-1133
11.28333,-1026
11.29167,-931
11.30000,-847
11.30833,-772
11.31667,-705
11.32500,-646
11.33333,-594
11.34167,-547
11.35000,-505
11.35833,-468
11.36667,-435
11.37500,-405
11.38333,-379
11.39167,-355
11.40000,-334
11.40833,-315
11.41667,-297
11.42500,-281
11.43333,-267
11.44167,-254
11.45000,-242
11.45833,-230
11.46667,-220
11.47500,-211
11.48333,-202
11.49167,-195
11.50000,-187
11.50833,-180
11.51667,-174
11.52500,-168
11.53333,-162
11.54167,-156
11.55000,-151
11.55833,-146
11.56667,-141
11.57500,-137
11.58333,-133
11.59167,-129
11.60000,-125
11.60833,-122
11.61667,-119
11.62500,-115
11.63333,-112
11.64167,-110
11.65000,-107
11.65833,-104
11.66667,-102
11.67500,-99
11.68333,-97
11.69167,-94
11.70000,-92
11.70833,-90
11.71667,-88
11.72500,-86
11.73333,-85
11.74167,-83
11.75000,-81
11.75833,-80
11.76667,-78
11.77500,-76
11.78333,-74
11.79167,-73
11.80000,-71
11.80833,-70
11.81667,-69
11.82500,-68
11.83333,-66
11.84167,-65
11.85000,-64
11.85833,-63
11.86667,-62
11.87500,-61
11.88333,-60
11.89167,-58
11.90000,-58
11.90833,-57
11.91667,-56
11.92500,-55
11.93333,-54
11.94167,-53
11.95000,-53
11.95833,-52
11.96667,-51
11.97500,-50
11.98333,-49
11.99167,-49
12.00000,-48
12.00833,-48
12.01667,-48
12.02500,-48
12.03333,-48
12.04167,-47
12.05000,-47
12.05833,-47
12.06667,-47
12.07500,-47
12.08333,-47
12.09167,-46
12.10000,-46
12.10833,-46
12.11667,-46
12.12500,-46
12.13333,-46
12.14167,-45
12.15000,-45
12.15833,-45
12.16667,-45
12.17500,-44
12.18333,-44
12.19167,-44
12.20000,-44
12.20833,-44
12.21667,-43
12.22500,-43
12.23333,-43
12.24167,-43
12.25000,-43
12.25833,-43
12.26667,-43
12.27500,-43
12.28333,-43
12.29167,-43
12.30000,-43
12.30833,-43
12.31667,-43
12.32500,-42
12.33333,-42
12.34167,-42
12.35000,-42
12.35833,-42
12.36667,-42
12.37500,-41
12.38333,-41
12.39167,-40
12.40000,-40
12.40833,-40
12.41667,-40
12.42500,-39
12.43333,-39
12.44167,-39
12.45000,-39
12.45833,-39
12.46667,-38
12.47500,-38
12.48333,-38
12.49167,-38
12.50000,-37
12.50833,-37
12.51667,-37
12.52500,-36
12.53333,-36
12.54167,-36
12.55000,-35
12.55833,-35
12.56667,-35
12.57500,-35
12.58333,-35
12.59167,-34
12.60000,-34
12.60833,-34
12.61667,-33
12.62500,-33
12.63333,-33
12.64167,-32
12.65000,-32
12.65833,-32
12.66667,-32
12.67500,-31
12.68333,-31
12.69167,-30
12.70000,-30
12.70833,-29
12.71667,-29
12.72500,-28
12.73333,-28
12.74167,-28
12.75000,-28
12.75833,-27
12.76667,-27
12.77500,-26
12.78333,-26
12.79167,-25
12.80000,-25
12.80833,-24
12.81667,-23
12.82500,-22
12.83333,-21
12.84167,-20
12.85000,-19
12.85833,-18
12.86667,-17
12.87500,-15
12.88333,-14
12.89167,-13
12.90000,-12
12.90833,-11
12.91667,-10
12.92500,-9
12.93333,-8
12.94167,-7
12.95000,-6
12.95833,-5
12.96667,-4
12.97500,-3
12.98333,-3
12.99167,-2
13.00000,-1
13.00833,0
13.01667,1
13.02500,2
13.03333,2
13.04167,3
13.05000,4
13.05833,4
13.06667,5
13.07500,5
13.08333,6
13.09167,6
13.10000,7
13.10833,8
13.11667,9
13.12500,10
13.13333,11
13.14167,12
13.15000,12
13.15833,12
13.16667,12
13.17500,12
13.18333,13
13.19167,13
13.20000,14
13.20833,14
13.21667,14
13.22500,14
13.23333,14
13.24167,14
13.25000,13
13.25833,13
13.26667,13
13.27500,13
13.28333,13
13.29167,13
13.30000,12
13.30833,12
13.31667,11
13.32500,11
13.33333,10
13.34167,10
13.35000,9
13.35833,8
13.36667,8
13.37500,7
13.38333,6
13.39167,5
13.40000,4
13.40833,3
13.41667,2
13.42500,1
13.43333,0
13.44167,-0
13.45000,-1
13.45833,-2
13.46667,-3
13.47500,-4
13.48333,-5
13.49167,-5
13.50000,-6
13.50833,-6
13.51667,-7
13.52500,-7
13.53333,-8
13.54167,-8
13.55000,-8
13.55833,-9
13.56667,-9
13.57500,-9
13.58333,-10
13.59167,-11
13.60000,-11
13.60833,-12
13.61667,-12
13.62500,-12
13.63333,-12
13.64167,-12
13.65000,-12
13.65833,-13
13.66667,-13
13.67500,-13
13.68333,-13
13.69167,-13
13.70000,-13
13.70833,-13
13.71667,-13
13.72500,-13
13.73333,-14
13.74167,-14
13.75000,-14
13.75833,-14
13.76667,-14
13.77500,-14
13.78333,-14
13.79167,-14
13.80000,-14
13.80833,-14
13.81667,-14
13.82500,-14
13.83333,-14
13.84167,-13
13.85000,-13
13.85833,-13
13.86667,-13
13.87500,-14
13.88333,-14
13.89167,-14
13.90000,-14
13.90833,-14
13.91667,-14
13.92500,-13
13.93333,-13
13.94167,-13
13.95000,-13
13.95833,-13
13.96667,-13
13.97500,-14
13.98333,-14
13.99167,-14
14.00000,-14
14.00833,-13
14.01667,-13
14.02500,-13
14.03333,-13
14.04167,-13
14.05000,-13
14.05833,-13
14.06667,-14
14.07500,-13
14.08333,-13
14.09167,-13
14.10000,-13
14.10833,-14
14.11667,-14
14.12500,-14
14.13333,-14
14.14167,-14
14.15000,-14
14.15833,-13
14.16667,-13
14.17500,-13
14.18333,-13
14.19167,-13
14.20000,-13
14.20833,-13
14.21667,-13
14.22500,-13
14.23333,-13
14.24167,-13
14.25000,-13
14.25833,-13
14.26667,-13
14.27500,-13
14.28333,-13
14.29167,-13
14.30000,-13
14.30833,-12
14.31667,-13
14.32500,-13
14.33333,-13
14.34167,-13
14.35000,-13
14.35833,-13
14.36667,-13
14.37500,-13
14.38333,-13
14.39167,-13
14.40000,-13
14.40833,-13
14.41667,-12
14.42500,-12
14.43333,-12
14.44167,-12
14.45000,-12
14.45833,-12
14.46667,-12
14.47500,-12
14.48333,-12
14.49167,-12
14.50000,-12
14.50833,-12
14.51667,-13
14.52500,-13
14.53333,-12
14.54167,-12
14.55000,-12
14.55833,-12
14.56667,-12
14.57500,-13
14.58333,-13
14.59167,-13
14.60000,-12
14.60833,-12
14.61667,-11
14.62500,-10
14.63333,-10
14.64167,-10
14.65000,-10
14.65833,-10
14.66667,-10
14.67500,-10
14.68333,-10
14.69167,-10
14.70000,-10
14.70833,-10
14.71667,-10
14.72500,-10
14.73333,-10
14.74167,-10
14.75000,-10
14.75833,-10
14.76667,-10
14.77500,-10
14.78333,-10
14.79167,-9
14.80000,-9
14.80833,-9
14.81667,-9
14.82500,-9
14.83333,-9
14.84167,-8
14.85000,-8
14.85833,-8
14.86667,-8
14.87500,-7
14.88333,-8
14.89167,-7
14.90000,-7
14.90833,-7
14.91667,-6
14.92500,-5
14.93333,-5
14.94167,-4
14.95000,-3
14.95833,-2
14.96667,-1
14.97500,0
14.98333,2
14.99167,4
15.00000,6
15.00833,9
15.01667,12
15.02500,16
15.03333,21
15.04167,26
15.05000,32
15.05833,40
15.06667,49
15.07500,60
15.08333,73
15.09167,88
15.10000,107
15.10833,129
15.11667,155
15.12500,186
15.13333,223
15.14167,267
15.15000,318
15.15833,379
15.16667,452
15.17500,538
15.18333,638
15.19167,756
15.20000,895
15.20833,1056
15.21667,1243
15.22500,1461
15.23333,1712
15.24167,2001
15.25000,2331
15.25833,2708
15.26667,3136
15.27500,3621
15.28333,4166
15.29167,4777
15.30000,5459
15.30833,6216
15.31667,7052
15.32500,7970
15.33333,8976
15.34167,10069
15.35000,11254
15.35833,12530
15.36667,13898
15.37500,15356
15.38333,16903
15.39167,18534
15.40000,20247
15.40833,22033
15.41667,23888
15.42500,25801
15.43333,27764
15.44167,29766
15.45000,31794
15.45833,33837
15.46667,35880
15.47500,37910
15.48333,39911
15.49167,41871
15.50000,43773
15.50833,45603
15.51667,47348
15.52500,48994
15.53333,50528
15.54167,51937
15.55000,53212
15.55833,54343
15.56667,55322
15.57500,56141
15.58333,56797
15.59167,57285
15.60000,57604
15.60833,57754
15.61667,57735
15.62500,57551
15.63333,57205
15.64167,56704
15.65000,56054
15.65833,55263
15.66667,54339
15.67500,53294
15.68333,52135
15.69167,50875
15.70000,49523
15.70833,48092
15.71667,46593
15.72500,45035
15.73333,43432
15.74167,41793
15.75000,40129
15.75833,38450
15.76667,36766
15.77500,35085
15.78333,33415
15.79167,31764
15.80000,30138
15.80833,28543
15.81667,26985
15.82500,25468
15.83333,23997
15.84167,22575
15.85000,21204
15.85833,19887
15.86667,18625
15.87500,17419
15.88333,16269
15.89167,15177
15.90000,14141
15.90833,13160
15.91667,12234
15.92500,11362
15.93333,10542
15.94167,9773
15.95000,9053
15.95833,8380
15.96667,7752
15.97500,7167
15.98333,6623
15.99167,6117
16.00000,5649
16.00833,5215
16.01667,4813
16.02500,4442
16.03333,4100
16.04167,3784
16.05000,3494
16.05833,3226
16.06667,2981
16.07500,2755
16.08333,2548
16.09167,2358
16.10000,2184
16.10833,2025
16.11667,1878
16.12500,1744
16.13333,1622
16.14167,1509
16.15000,1407
16.15833,1313
16.16667,1227
16.17500,1148
16.18333,1077
16.19167,1011
16.20000,951
16.20833,895
16.21667,845
16.22500,798
16.23333,755
16.24167,716
16.25000,680
16.25833,647
16.26667,616
16.27500,588
16.28333,562
16.29167,538
16.30000,516
16.30833,495
16.31667,476
16.32500,458
16.33333,442
16.34167,427
16.35000,412
16.35833,399
16.36667,387
16.37500,376
16.38333,365
16.39167,355
16.40000,345
16.40833,336
16.41667,327
16.42500,319
16.43333,312
16.44167,305
16.45000,299
16.45833,292
16.46667,287
16.47500,281
16.48333,276
16.49167,272
16.50000,268
16.50833,263
16.51667,258
16.52500,254
16.53333,250
16.54167,246
16.55000,243
16.55833,239
16.56667,236
16.57500,233
16.58333,230
16.59167,228
16.60000,225
16.60833,222
16.61667,219
16.62500,217
16.63333,214
16.64167,212
16.65000,210
16.65833,208
16.66667,205
16.67500,203
16.68333,201
16.69167,199
16.70000,197
16.70833,195
16.71667,193
16.72500,191
16.73333,190
16.74167,188
16.75000,186
16.75833,184
16.76667,182
16.77500,180
16.78333,179
16.79167,177
16.80000,176
16.80833,174
16.81667,172
16.82500,171
16.83333,169
16.84167,167
16.85000,165
16.85833,164
16.86667,162
16.87500,161
16.88333,159
16.89167,158
16.90000,156
16.90833,155
16.91667,153
16.92500,151
16.93333,149
16.94167,148
16.95000,146
16.95833,145
16.96667,144
16.97500,142
16.98333,141
16.99167,140
17.00000,138
17.00833,137
17.01667,136
17.02500,135
17.03333,134
17.04167,133
17.05000,131
17.05833,130
17.06667,129
17.07500,127
17.08333,126
17.09167,124
17.10000,123
17.10833,122
17.11667,121
17.12500,120
17.13333,119
17.14167,118
17.15000,117
17.15833,116
17.16667,115
17.17500,114
17.18333,113
17.19167,112
17.20000,111
17.20833,110
17.21667,109
17.22500,108
17.23333,107
17.24167,106
17.25000,105
17.25833,104
17.26667,103
17.27500,102
17.28333,101
17.29167,100
17.30000,100
17.30833,99
17.31667,98
17.32500,97
17.33333,97
17.34167,96
17.35000,95
17.35833,95
17.36667,94
17.37500,93
17.38333,93
17.39167,92
17.40000,91
17.40833,91
17.41667,91
17.42500,90
17.43333,90
17.44167,90
17.45000,89
17.45833,88
17.46667,88
17.47500,87
17.48333,87
17.49167,86
17.50000,86
17.50833,85
17.51667,85
17.52500,84
17.53333,84
17.54167,83
17.55000,83
17.55833,82
17.56667,82
17.57500,81
17.58333,80
17.59167,80
17.60000,79
17.60833,79
17.61667,79
17.62500,79
17.63333,78
17.64167,78
17.65000,78
17.65833,77
17.66667,76
17.67500,76
17.68333,76
17.69167,76
17.70000,76
17.70833,75
17.71667,75
17.72500,74
17.73333,74
17.74167,73
17.75000,73
17.75833,73
17.76667,72
17.77500,72
17.78333,72
17.79167,71
17.80000,71
17.80833,71
17.81667,70
17.82500,70
17.83333,70
17.84167,69
17.85000,68
17.85833,67
17.86667,67
17.87500,67
17.88333,66
17.89167,66
17.90000,66
17.90833,66
17.91667,66
17.92500,65
17.93333,65
17.94167,65
17.95000,64
17.95833,64
17.96667,64
17.97500,63
17.98333,63
17.99167,62
18.00000,62
18.00833,62
18.01667,61
18.02500,61
18.03333,60
18.04167,60
18.05000,60
18.05833,60
18.06667,60
18.07500,60
18.08333,59
18.09167,59
18.10000,59
18.10833,58
18.11667,58
18.12500,57
18.13333,57
18.14167,57
18.15000,56
18.15833,56
18.16667,55
18.17500,55
18.18333,55
18.19167,54
18.20000,54
18.20833,54
18.21667,54
18.22500,53
18.23333,53
18.24167,52
18.25000,52
18.25833,52
18.26667,51
18.27500,51
18.28333,51
18.29167,51
18.30000,51
18.30833,50
18.31667,50
18.32500,50
18.33333,49
18.34167,49
18.35000,49
18.35833,49
18.36667,48
18.37500,48
18.38333,48
18.39167,47
18.40000,47
18.40833,46
18.41667,46
18.42500,46
18.43333,45
18.44167,45
18.45000,45
18.45833,45
18.46667,44
18.47500,44
18.48333,43
18.49167,43
18.50000,43
18.50833,43
18.51667,43
18.52500,42
18.53333,42
18.54167,42
18.55000,41
18.55833,41
18.56667,41
18.57500,40
18.58333,40
18.59167,40
18.60000,40
18.60833,40
18.61667,40
18.62500,39
18.63333,39
18.64167,39
18.65000,39
18.65833,38
18.66667,38
18.67500,37
18.68333,37
18.69167,37
18.70000,37
18.70833,37
18.71667,37
18.72500,37
18.73333,37
18.74167,37
18.75000,37
18.75833,38
18.76667,38
18.77500,38
18.78333,38
18.79167,38
18.80000,38
18.80833,38
18.81667,38
18.82500,38
18.83333,37
18.84167,37
18.85000,37
18.85833,37
18.86667,37
18.87500,37
18.88333,37
18.89167,37
18.90000,37
18.90833,37
18.91667,36
18.92500,36
18.93333,36
18.94167,36
18.95000,36
18.95833,35
18.96667,35
18.97500,35
18.98333,35
18.99167,34
19.00000,34
19.00833,34
19.01667,34
19.02500,34
19.03333,34
19.04167,34
19.05000,33
19.05833,33
19.06667,32
19.07500,32
19.08333,32
19.09167,31
19.10000,31
19.10833,31
19.11667,31
19.12500,30
19.13333,30
19.14167,30
19.15000,29
19.15833,29
19.16667,29
19.17500,29
19.18333,28
19.19167,28
19.20000,28
19.20833,28
19.21667,27
19.22500,27
19.23333,27
19.24167,26
19.25000,26
19.25833,26
19.26667,26
19.27500,26
19.28333,26
19.29167,26
19.30000,26
19.30833,26
19.31667,25
19.32500,25
19.33333,25
19.34167,24
19.35000,24
19.35833,23
19.36667,24
19.37500,24
19.38333,23
19.39167,23
19.40000,23
19.40833,23
19.41667,22
19.42500,22
19.43333,22
19.44167,22
19.45000,22
19.45833,21
19.46667,21
19.47500,21
19.48333,21
19.49167,21
19.50000,21
19.50833,21
19.51667,21
19.52500,20
19.53333,20
19.54167,20
19.55000,19
19.55833,19
19.56667,19
19.57500,20
19.58333,20
19.59167,19
19.60000,19
19.60833,19
19.61667,19
19.62500,19
19.63333,19
19.64167,19
19.65000,19
19.65833,19
19.66667,19
19.67500,19
19.68333,19
19.69167,18
19.70000,17
19.70833,17
19.71667,17
19.72500,16
19.73333,16
19.74167,16
19.75000,16
19.75833,16
19.76667,16
19.77500,16
19.78333,16
19.79167,16
19.80000,16
19.80833,16
19.81667,16
19.82500,16
19.83333,16
19.84167,16
19.85000,17
19.85833,17
19.86667,16
19.87500,16
19.88333,16
19.89167,16
19.90000,15
19.90833,15
19.91667,15
19.92500,15
19.93333,15
19.94167,14
19.95000,14
19.95833,14
19.96667,15
19.97500,14
19.98333,14
19.99167,14
20.00000,14
20.00833,14
20.01667,14
20.02500,14
20.03333,14
20.04167,14
20.05000,14
20.05833,14
20.06667,14
20.07500,13
20.08333,13
20.09167,13
20.10000,13
20.10833,13
20.11667,12
20.12500,12
20.13333,12
20.14167,12
20.15000,12
20.15833,12
20.16667,12
20.17500,12
20.18333,13
20.19167,13
20.20000,13
20.20833,13
20.21667,13
20.22500,13
20.23333,13
20.24167,12
20.25000,12
20.25833,12
20.26667,13
20.27500,12
20.28333,13
20.29167,12
20.30000,12
20.30833,12
20.31667,12
20.32500,11
20.33333,11
20.34167,11
20.35000,12
20.35833,12
20.36667,11
20.37500,12
20.38333,12
20.39167,12
20.40000,11
20.40833,11
20.41667,10
20.42500,10
20.43333,11
20.44167,11
20.45000,11
20.45833,11
20.46667,11
20.47500,11
20.48333,11
20.49167,11
20.50000,11
20.50833,11
20.51667,10
20.52500,10
20.53333,10
20.54167,10
20.55000,10
20.55833,10
20.56667,10
20.57500,10
20.58333,10
20.59167,10
20.60000,10
20.60833,10
20.61667,10
20.62500,10
20.63333,10
20.64167,9
20.65000,9
20.65833,9
20.66667,9
20.67500,9
20.68333,9
20.69167,9
20.70000,9
20.70833,10
20.71667,10
20.72500,10
20.73333,10
20.74167,9
20.75000,9
20.75833,9
20.76667,9
20.77500,9
20.78333,9
20.79167,9
20.80000,10
20.80833,9
20.81667,9
20.82500,9
20.83333,9
20.84167,9
20.85000,9
20.85833,8
20.86667,8
20.87500,8
20.88333,8
20.89167,8
20.90000,8
20.90833,8
20.91667,8
20.92500,8
20.93333,8
20.94167,7
20.95000,7
20.95833,7
20.96667,7
20.97500,7
20.98333,7
20.99167,7
21.00000,7
21.00833,7
21.01667,7
21.02500,8
21.03333,8
21.04167,8
21.05000,8
21.05833,8
21.06667,8
21.07500,8
21.08333,8
21.09167,8
21.10000,8
21.10833,8
21.11667,8
21.12500,8
21.13333,8
21.14167,8
21.15000,8
21.15833,8
21.16667,8
21.17500,8
21.18333,8
21.19167,8
21.20000,8
21.20833,7
21.21667,7
21.22500,7
21.23333,7
21.24167,8
21.25000,8
21.25833,8
21.26667,9
21.27500,9
21.28333,9
21.29167,10
21.30000,10
21.30833,11
21.31667,11
21.32500,11
21.33333,12
21.34167,13
21.35000,13
21.35833,14
21.36667,15
21.37500,17
21.38333,18
21.39167,20
21.40000,22
21.40833,24
21.41667,27
21.42500,30
21.43333,33
21.44167,37
21.45000,41
21.45833,45
21.46667,49
21.47500,55
21.48333,62
21.49167,69
21.50000,77
21.50833,86
21.51667,97
21.52500,108
21.53333,122
21.54167,137
21.55000,154
21.55833,173
21.56667,194
21.57500,218
21.58333,246
21.59167,277
21.60000,311
21.60833,350
21.61667,393
21.62500,441
21.63333,495
21.64167,555
21.65000,622
21.65833,696
21.66667,778
21.67500,870
21.68333,971
21.69167,1082
21.70000,1203
21.70833,1337
21.71667,1482
21.72500,1642
21.73333,1815
21.74167,2003
21.75000,2206
21.75833,2425
21.76667,2660
21.77500,2912
21.78333,3180
21.79167,3467
21.80000,3770
21.80833,4091
21.81667,4428
21.82500,4783
21.83333,5153
21.84167,5539
21.85000,5940
21.85833,6353
21.86667,6779
21.87500,7215
21.88333,7660
21.89167,8112
21.90000,8569
21.90833,9030
21.91667,9492
21.92500,9952
21.93333,10408
21.94167,10858
21.95000,11299
21.95833,11729
21.96667,12145
21.97500,12544
21.98333,12925
21.99167,13284
22.00000,13619
22.00833,13929
22.01667,14211
22.02500,14463
22.03333,14685
22.04167,14874
22.05000,15030
22.05833,15152
22.06667,15240
22.07500,15292
22.08333,15309
22.09167,15291
22.10000,15239
22.10833,15152
22.11667,15032
22.12500,14881
22.13333,14700
22.14167,14489
22.15000,14250
22.15833,13985
22.16667,13696
22.17500,13386
22.18333,13057
22.19167,12710
22.20000,12347
22.20833,11971
22.21667,11585
22.22500,11189
22.23333,10786
22.24167,10379
22.25000,9970
22.25833,9559
22.26667,9149
22.27500,8741
22.28333,8338
22.29167,7940
22.30000,7549
22.30833,7166
22.31667,6791
22.32500,6427
22.33333,6073
22.34167,5730
22.35000,5398
22.35833,5080
22.36667,4773
22.37500,4480
22.38333,4199
22.39167,3931
22.40000,3677
22.40833,3435
22.41667,3206
22.42500,2989
22.43333,2785
22.44167,2592
22.45000,2410
22.45833,2240
22.46667,2081
22.47500,1931
22.48333,1792
22.49167,1662
22.50000,1541
22.50833,1428
22.51667,1323
22.52500,1226
22.53333,1136
22.54167,1053
22.55000,976
22.55833,904
22.56667,838
22.57500,777
22.58333,721
22.59167,669
22.60000,622
22.60833,579
22.61667,539
22.62500,502
22.63333,468
22.64167,437
22.65000,408
22.65833,383
22.66667,358
22.67500,336
22.68333,316
22.69167,298
22.70000,281
22.70833,266
22.71667,252
22.72500,239
22.73333,227
22.74167,215
22.75000,205
22.75833,196
22.76667,187
22.77500,179
22.78333,171
22.79167,164
22.80000,158
22.80833,152
22.81667,146
22.82500,141
22.83333,137
22.84167,133
22.85000,129
22.85833,125
22.86667,122
22.87500,119
22.88333,115
22.89167,112
22.90000,110
22.90833,107
22.91667,104
22.92500,102
22.93333,99
22.94167,97
22.95000,96
22.95833,94
22.96667,93
22.97500,91
22.98333,89
22.99167,88
23.00000,86
23.00833,85
23.01667,83
23.02500,82
23.03333,81
23.04167,80
23.05000,79
23.05833,78
23.06667,77
23.07500,76
23.08333,75
23.09167,74
23.10000,73
23.10833,72
23.11667,71
23.12500,70
23.13333,69
23.14167,68
23.15000,67
23.15833,66
23.16667,66
23.17500,65
23.18333,64
23.19167,63
23.20000,63
23.20833,62
23.21667,62
23.22500,62
23.23333,61
23.24167,61
23.25000,61
23.25833,61
23.26667,60
23.27500,59
23.28333,58
23.29167,57
23.30000,56
23.30833,55
23.31667,55
23.32500,54
23.33333,54
23.34167,54
23.35000,53
23.35833,53
23.36667,53
23.37500,52
23.38333,52
23.39167,51
23.40000,50
23.40833,49
23.41667,49
23.42500,49
23.43333,48
23.44167,48
23.45000,47
23.45833,47
23.46667,47
23.47500,46
23.48333,46
23.49167,46
23.50000,45
23.50833,45
23.51667,44
23.52500,44
23.53333,43
23.54167,43
23.55000,42
23.55833,41
23.56667,41
23.57500,41
23.58333,40
23.59167,40
23.60000,40
23.60833,40
23.61667,39
23.62500,39
23.63333,39
23.64167,39
23.65000,38
23.65833,38
23.66667,38
23.67500,37
23.68333,37
23.69167,37
23.70000,36
23.70833,36
23.71667,36
23.72500,36
23.73333,36
23.74167,36
23.75000,35
23.75833,35
23.76667,35
23.77500,35
23.78333,35
23.79167,35
23.80000,35
23.80833,34
23.81667,34
23.82500,33
23.83333,33
23.84167,33
23.85000,33
23.85833,32
23.86667,32
23.87500,32
23.88333,32
23.89167,31
23.90000,31
23.90833,31
23.91667,31
23.92500,31
23.93333,31
23.94167,32
23.95000,32
23.95833,32
23.96667,31
23.97500,31
23.98333,31
23.99167,30
24.00000,30
24.00833,30
24.01667,29
24.02500,29
24.03333,30
24.04167,30
24.05000,30
24.05833,30
24.06667,30
24.07500,30
24.08333,30
24.09167,29
24.10000,29
24.10833,28
24.11667,28
24.12500,28
24.13333,28
24.14167,28
24.15000,28
24.15833,28
24.16667,28
24.17500,27
24.18333,27
24.19167,27
24.20000,27
24.20833,27
24.21667,28
24.22500,29
24.23333,29
24.24167,29
24.25000,29
24.25833,30
24.26667,31
24.27500,32
24.28333,33
24.29167,33
24.30000,34
24.30833,34
24.31667,35
24.32500,36
24.33333,37
24.34167,39
24.35000,40
24.35833,43
24.36667,45
24.37500,48
24.38333,51
24.39167,55
24.40000,58
24.40833,62
24.41667,66
24.42500,71
24.43333,77
24.44167,83
24.45000,90
24.45833,98
24.46667,107
24.47500,118
24.48333,129
24.49167,141
24.50000,155
24.50833,170
24.51667,186
24.52500,205
24.53333,225
24.54167,246
24.55000,271
24.55833,297
24.56667,326
24.57500,358
24.58333,393
24.59167,431
24.60000,473
24.60833,518
24.61667,568
24.62500,621
24.63333,678
24.64167,739
24.65000,805
24.65833,877
24.66667,953
24.67500,1034
24.68333,1120
24.69167,1211
24.70000,1309
24.70833,1411
24.71667,1520
24.72500,1633
24.73333,1752
24.74167,1876
24.75000,2005
24.75833,2139
24.76667,2278
24.77500,2421
24.78333,2568
24.79167,2719
24.80000,2874
24.80833,3031
24.81667,3190
24.82500,3352
24.83333,3514
24.84167,3677
24.85000,3839
24.85833,4001
24.86667,4161
24.87500,4318
24.88333,4473
24.89167,4623
24.90000,4770
24.90833,4910
24.91667,5044
24.92500,5172
24.93333,5292
24.94167,5404
24.95000,5507
24.95833,5601
24.96667,5685
24.97500,5759
24.98333,5823
24.99167,5876
25.00000,5917
25.00833,5947
25.01667,5966
25.02500,5973
25.03333,5970
25.04167,5954
25.05000,5928
25.05833,5890
25.06667,5842
25.07500,5783
25.08333,5714
25.09167,5636
25.10000,5549
25.10833,5454
25.11667,5351
25.12500,5241
25.13333,5123
25.14167,5000
25.15000,4871
25.15833,4737
25.16667,4600
25.17500,4459
25.18333,4315
25.19167,4169
25.20000,4022
25.20833,3873
25.21667,3725
25.22500,3576
25.23333,3428
25.24167,3281
25.25000,3136
25.25833,2992
25.26667,2852
25.27500,2714
25.28333,2579
25.29167,2447
25.30000,2319
25.30833,2195
25.31667,2075
25.32500,1959
25.33333,1848
25.34167,1740
25.35000,1637
25.35833,1539
25.36667,1444
25.37500,1354
25.38333,1268
25.39167,1187
25.40000,1110
25.40833,1037
25.41667,968
25.42500,903
25.43333,842
25.44167,784
25.45000,730
25.45833,680
25.46667,633
25.47500,589
25.48333,547
25.49167,508
25.50000,472
25.50833,439
25.51667,408
25.52500,379
25.53333,352
25.54167,327
25.55000,305
25.55833,284
25.56667,264
25.57500,246
25.58333,230
25.59167,214
25.60000,200
25.60833,187
25.61667,175
25.62500,165
25.63333,155
25.64167,146
25.65000,137
25.65833,130
25.66667,123
25.67500,116
25.68333,110
25.69167,104
25.70000,99
25.70833,95
25.71667,91
25.72500,87
25.73333,83
25.74167,80
25.75000,77
25.75833,74
25.76667,71
25.77500,68
25.78333,66
25.79167,64
25.80000,62
25.80833,60
25.81667,59
25.82500,57
25.83333,56
25.84167,55
25.85000,54
25.85833,52
25.86667,51
25.87500,50
25.88333,49
25.89167,48
25.90000,47
25.90833,47
25.91667,45
25.92500,44
25.93333,44
25.94167,43
25.95000,42
25.95833,42
25.96667,42
25.97500,41
25.98333,40
25.99167,40
26.00000,39
26.00833,38
26.01667,38
26.02500,37
26.03333,37
26.04167,36
26.05000,36
26.05833,35
26.06667,35
26.07500,34
26.08333,34
26.09167,34
26.10000,33
26.10833,32
26.11667,32
26.12500,32
26.13333,31
26.14167,31
26.15000,30
26.15833,30
26.16667,30
26.17500,30
26.18333,30
26.19167,29
26.20000,29
26.20833,29
26.21667,28
26.22500,28
26.23333,28
26.24167,28
26.25000,28
26.25833,27
26.26667,27
26.27500,27
26.28333,27
26.29167,27
26.30000,26
26.30833,26
26.31667,25
26.32500,25
26.33333,25
26.34167,25
26.35000,25
26.35833,25
26.36667,25
26.37500,24
26.38333,24
26.39167,24
26.40000,24
26.40833,23
26.41667,23
26.42500,23
26.43333,23
26.44167,23
26.45000,23
26.45833,23
26.46667,23
26.47500,23
26.48333,22
26.49167,22
26.50000,22
26.50833,22
26.51667,22
26.52500,22
26.53333,21
26.54167,21
26.55000,21
26.55833,21
26.56667,21
26.57500,22
26.58333,22
26.59167,22
26.60000,22
26.60833,22
26.61667,21
26.62500,21
26.63333,21
26.64167,21
26.65000,21
26.65833,21
26.66667,21
26.67500,22
26.68333,22
26.69167,22
26.70000,22
26.70833,22
26.71667,22
26.72500,21
26.73333,21
26.74167,21
26.75000,20
26.75833,20
26.76667,20
26.77500,20
26.78333,20
26.79167,20
26.80000,20
26.80833,20
26.81667,19
26.82500,19
26.83333,19
26.84167,19
26.85000,19
26.85833,19
26.86667,18
26.87500,19
26.88333,18
26.89167,18
26.90000,17
26.90833,17
26.91667,17
26.92500,17
26.93333,17
26.94167,17
26.95000,17
26.95833,17
26.96667,17
26.97500,17
26.98333,17
26.99167,17
27.00000,17
27.00833,17
27.01667,17
27.02500,16
27.03333,17
27.04167,17
27.05000,17
27.05833,17
27.06667,17
27.07500,16
27.08333,16
27.09167,16
27.10000,16
27.10833,16
27.11667,16
27.12500,16
27.13333,16
27.14167,15
27.15000,15
27.15833,15
27.16667,15
27.17500,15
27.18333,15
27.19167,15
27.20000,15
27.20833,14
27.21667,14
27.22500,14
27.23333,14
27.24167,14
27.25000,13
27.25833,13
27.26667,13
27.27500,13
27.28333,13
27.29167,13
27.30000,13
27.30833,13
27.31667,14
27.32500,14
27.33333,13
27.34167,13
27.35000,13
27.35833,13
27.36667,12
27.37500,12
27.38333,12
27.39167,12
27.40000,13
27.40833,13
27.41667,12
27.42500,12
27.43333,12
27.44167,12
27.45000,12
27.45833,12
27.46667,12
27.47500,12
27.48333,12
27.49167,12
27.50000,12
27.50833,12
27.51667,12
27.52500,12
27.53333,11
27.54167,11
27.55000,11
27.55833,11
27.56667,11
27.57500,11
27.58333,11
27.59167,12
27.60000,12
27.60833,11
27.61667,11
27.62500,11
27.63333,11
27.64167,10
27.65000,10
27.65833,10
27.66667,10
27.67500,10
27.68333,11
27.69167,11
27.70000,11
27.70833,11
27.71667,11
27.72500,11
27.73333,10
27.74167,10
27.75000,9
27.75833,9
27.76667,9
27.77500,9
27.78333,9
27.79167,9
27.80000,9
27.80833,9
27.81667,9
27.82500,8
27.83333,8
27.84167,8
27.85000,8
27.85833,8
27.86667,7
27.87500,7
27.88333,6
27.89167,5
27.90000,5
27.90833,4
27.91667,4
27.92500,3
27.93333,3
27.94167,2
27.95000,1
27.95833,1
27.96667,-0
27.97500,-1
27.98333,-2
27.99167,-3
28.00000,-4
28.00833,-5
28.01667,-7
28.02500,-8
28.03333,-9
28.04167,-11
28.05000,-13
28.05833,-14
28.06667,-16
28.07500,-18
28.08333,-19
28.09167,-21
28.10000,-23
28.10833,-26
28.11667,-28
28.12500,-30
28.13333,-33
28.14167,-35
28.15000,-38
28.15833,-41
28.16667,-44
28.17500,-47
28.18333,-50
28.19167,-53
28.20000,-56
28.20833,-59
28.21667,-62
28.22500,-65
28.23333,-68
28.24167,-72
28.25000,-75
28.25833,-79
28.26667,-83
28.27500,-87
28.28333,-90
28.29167,-94
28.30000,-97
28.30833,-101
28.31667,-104
28.32500,-108
28.33333,-111
28.34167,-115
28.35000,-118
28.35833,-121
28.36667,-124
28.37500,-128
28.38333,-131
28.39167,-133
28.40000,-136
28.40833,-138
28.41667,-140
28.42500,-142
28.43333,-145
28.44167,-147
28.45000,-149
28.45833,-151
28.46667,-153
28.47500,-154
28.48333,-155
28.49167,-156
28.50000,-157
28.50833,-158
28.51667,-159
28.52500,-159
28.53333,-159
28.54167,-159
28.55000,-158
28.55833,-158
28.56667,-157
28.57500,-156
28.58333,-155
28.59167,-154
28.60000,-152
28.60833,-151
28.61667,-150
28.62500,-148
28.63333,-146
28.64167,-144
28.65000,-142
28.65833,-140
28.66667,-138
28.67500,-135
28.68333,-133
28.69167,-131
28.70000,-128
28.70833,-126
28.71667,-123
28.72500,-120
28.73333,-117
28.74167,-114
28.75000,-111
28.75833,-108
28.76667,-105
28.77500,-102
28.78333,-99
28.79167,-96
28.80000,-93
28.80833,-90
28.81667,-87
28.82500,-84
28.83333,-81
28.84167,-78
28.85000,-75
28.85833,-72
28.86667,-70
28.87500,-67
28.88333,-64
28.89167,-62
28.90000,-59
28.90833,-57
28.91667,-55
28.92500,-52
28.93333,-50
28.94167,-48
28.95000,-46
28.95833,-44
28.96667,-41
28.97500,-39
28.98333,-37
28.99167,-36
29.00000,-35
29.00833,-33
29.01667,-31
29.02500,-30
29.03333,-28
29.04167,-27
29.05000,-26
29.05833,-25
29.06667,-24
29.07500,-22
29.08333,-21
29.09167,-20
29.10000,-19
29.10833,-18
29.11667,-17
29.12500,-16
29.13333,-15
29.14167,-15
29.15000,-14
29.15833,-13
29.16667,-12
29.17500,-11
29.18333,-11
29.19167,-10
29.20000,-10
29.20833,-10
29.21667,-9
29.22500,-9
29.23333,-8
29.24167,-8
29.25000,-8
29.25833,-8
29.26667,-7
29.27500,-7
29.28333,-6
29.29167,-6
29.30000,-6
29.30833,-6
29.31667,-6
29.32500,-6
29.33333,-5
29.34167,-5
29.35000,-4
29.35833,-4
29.36667,-4
29.37500,-3
29.38333,-3
29.39167,-3
29.40000,-3
29.40833,-3
29.41667,-4
29.42500,-4
29.43333,-4
29.44167,-4
29.45000,-4
29.45833,-4
29.46667,-4
29.47500,-3
29.48333,-3
29.49167,-3
29.50000,-3
29.50833,-3
29.51667,-3
29.52500,-4
29.53333,-4
29.54167,-4
29.55000,-4
29.55833,-4
29.56667,-4
29.57500,-4
29.58333,-4
29.59167,-4
29.60000,-4
29.60833,-4
29.61667,-5
29.62500,-5
29.63333,-6
29.64167,-6
29.65000,-7
29.65833,-7
29.66667,-7
29.67500,-8
29.68333,-8
29.69167,-8
29.70000,-8
29.70833,-9
29.71667,-9
29.72500,-10
29.73333,-11
29.74167,-11
29.75000,-11
29.75833,-12
29.76667,-12
29.77500,-13
29.78333,-13
29.79167,-14
29.80000,-15
29.80833,-15
29.81667,-16
29.82500,-17
29.83333,-18
29.84167,-19
29.85000,-19
29.85833,-20
29.86667,-21
29.87500,-22
29.88333,-22
29.89167,-23
29.90000,-24
29.90833,-25
29.91667,-27
29.92500,-27
29.93333,-28
29.94167,-29
29.95000,-30
29.95833,-31
29.96667,-32
29.97500,-33
29.98333,-34
29.99167,-36
30.00000,-37
30.00833,-38
30.01667,-39
30.02500,-40
30.03333,-41
30.04167,-42
30.05000,-44
30.05833,-45
30.06667,-46
30.07500,-47
30.08333,-49
30.09167,-50
30.10000,-51
30.10833,-52
30.11667,-53
30.12500,-54
30.13333,-55
30.14167,-56
30.15000,-57
30.15833,-57
30.16667,-58
30.17500,-59
30.18333,-60
30.19167,-60
30.20000,-61
30.20833,-62
30.21667,-62
30.22500,-63
30.23333,-63
30.24167,-64
30.25000,-64
30.25833,-65
30.26667,-65
30.27500,-65
30.28333,-65
30.29167,-65
30.30000,-65
30.30833,-65
30.31667,-65
30.32500,-65
30.33333,-65
30.34167,-65
30.35000,-64
30.35833,-64
30.36667,-63
30.37500,-62
30.38333,-61
30.39167,-60
30.40000,-59
30.40833,-59
30.41667,-58
30.42500,-57
30.43333,-56
30.44167,-55
30.45000,-55
30.45833,-54
30.46667,-53
30.47500,-52
30.48333,-51
30.49167,-50
30.50000,-49
30.50833,-48
30.51667,-47
30.52500,-46
30.53333,-45
30.54167,-43
30.55000,-42
30.55833,-41
30.56667,-40
30.57500,-39
30.58333,-37
30.59167,-36
30.60000,-35
30.60833,-34
30.61667,-33
30.62500,-32
30.63333,-31
30.64167,-30
30.65000,-29
30.65833,-28
30.66667,-27
30.67500,-27
30.68333,-26
30.69167,-25
30.70000,-24
30.70833,-24
30.71667,-23
30.72500,-22
30.73333,-21
30.74167,-21
30.75000,-20
30.75833,-19
30.76667,-18
30.77500,-18
30.78333,-17
30.79167,-16
30.80000,-16
30.80833,-16
30.81667,-16
30.82500,-16
30.83333,-16
30.84167,-15
30.85000,-14
30.85833,-13
30.86667,-12
30.87500,-12
30.88333,-11
30.89167,-11
30.90000,-11
30.90833,-11
30.91667,-11
30.92500,-10
30.93333,-10
30.94167,-9
30.95000,-9
30.95833,-9
30.96667,-9
30.97500,-9
30.98333,-9
30.99167,-8
31.00000,-8
31.00833,-8
31.01667,-8
31.02500,-8
31.03333,-8
31.04167,-8
31.05000,-8
31.05833,-7
31.06667,-7
31.07500,-7
31.08333,-7
31.09167,-7
31.10000,-7
31.10833,-7
31.11667,-6
31.12500,-6
31.13333,-7
31.14167,-6
31.15000,-6
31.15833,-6
31.16667,-6
31.17500,-6
31.18333,-6
31.19167,-6
31.20000,-6
31.20833,-6
31.21667,-6
31.22500,-6
31.23333,-6
31.24167,-6
31.25000,-6
31.25833,-6
31.26667,-6
31.27500,-6
31.28333,-5
31.29167,-5
31.30000,-5
31.30833,-5
31.31667,-4
31.32500,-4
31.33333,-4
31.34167,-4
31.35000,-4
31.35833,-4
31.36667,-4
31.37500,-4
31.38333,-4
31.39167,-4
31.40000,-4
31.40833,-4
31.41667,-4
31.42500,-4
31.43333,-4
31.44167,-4
31.45000,-4
31.45833,-3
31.46667,-3
31.47500,-3
31.48333,-3
31.49167,-3
31.50000,-3
31.50833,-3
31.51667,-3
31.52500,-3
31.53333,-3
31.54167,-3
31.55000,-3
31.55833,-3
31.56667,-2
31.57500,-2
31.58333,-2
31.59167,-2
31.60000,-2
31.60833,-3
31.61667,-3
31.62500,-3
31.63333,-2
31.64167,-2
31.65000,-2
31.65833,-1
31.66667,-1
31.67500,-1
31.68333,-2
31.69167,-2
31.70000,-2
31.70833,-2
31.71667,-2
31.72500,-1
31.73333,-1
31.74167,-1
31.75000,-1
31.75833,-1
31.76667,-1
31.77500,-1
31.78333,-1
31.79167,-1
31.80000,-2
31.80833,-2
31.81667,-2
31.82500,-2
31.83333,-2
31.84167,-2
31.85000,-2
31.85833,-1
31.86667,-2
31.87500,-2
31.88333,-2
31.89167,-2
31.90000,-2
31.90833,-2
31.91667,-2
31.92500,-2
31.93333,-2
31.94167,-2
31.95000,-2
31.95833,-2
31.96667,-2
31.97500,-2
31.98333,-2
31.99167,-1
32.00000,-1
32.00833,-1
32.01667,-1
32.02500,-1
32.03333,-1
32.04167,-2
32.05000,-2
32.05833,-2
32.06667,-2
32.07500,-2
32.08333,-2
32.09167,-2
32.10000,-1
32.10833,-2
32.11667,-2
32.12500,-2
32.13333,-2
32.14167,-2
32.15000,-2
32.15833,-1
32.16667,-1
32.17500,-1
32.18333,-2
32.19167,-2
32.20000,-2
32.20833,-2
32.21667,-2
32.22500,-2
32.23333,-2
32.24167,-2
32.25000,-2
32.25833,-2
32.26667,-2
32.27500,-2
32.28333,-2
32.29167,-2
32.30000,-2
32.30833,-1
32.31667,-1
32.32500,-2
32.33333,-2
32.34167,-2
32.35000,-2
32.35833,-2
32.36667,-2
32.37500,-2
32.38333,-2
32.39167,-2
32.40000,-2
32.40833,-2
32.41667,-2
32.42500,-1
32.43333,-1
32.44167,-1
32.45000,-1
32.45833,-1
32.46667,-2
32.47500,-1
32.48333,-1
32.49167,-1
32.50000,-1
32.50833,-1
32.51667,-1
32.52500,-1
32.53333,-1
32.54167,-1
32.55000,-1
32.55833,-1
32.56667,-1
32.57500,-1
32.58333,-1
32.59167,-1
32.60000,-1
32.60833,-1
32.61667,-1
32.62500,-1
32.63333,-1
32.64167,-1
32.65000,-1
32.65833,-2
32.66667,-1
32.67500,-1
32.68333,-1
32.69167,-1
32.70000,-1
32.70833,-1
32.71667,-1
32.72500,-1
32.73333,-1
32.74167,-1
32.75000,-2
32.75833,-1
32.76667,-1
32.77500,-1
32.78333,-1
32.79167,-1
32.80000,-1
32.80833,-1
32.81667,-2
32.82500,-2
32.83333,-2
32.84167,-2
32.85000,-2
32.85833,-2
32.86667,-1
32.87500,-1
32.88333,-1
32.89167,-1
32.90000,-1
32.90833,-1
32.91667,-1
32.92500,-1
32.93333,-1
32.94167,-1
32.95000,-2
32.95833,-2
32.96667,-2
32.97500,-2
32.98333,-1
32.99167,-1
33.00000,-1
33.00833,-1
33.01667,-1
33.02500,-1
33.03333,-1
33.04167,-1
33.05000,-0
33.05833,-1
33.06667,-1
33.07500,-1
33.08333,-1
33.09167,-1
33.10000,-2
33.10833,-2
33.11667,-2
33.12500,-2
33.13333,-2
33.14167,-2
33.15000,-2
33.15833,-2
33.16667,-2
33.17500,-2
33.18333,-2
33.19167,-2
33.20000,-2
33.20833,-2
33.21667,-1
33.22500,-1
33.23333,-1
33.24167,-1
33.25000,-1
33.25833,-1
33.26667,-1
33.27500,-2
33.28333,-2
33.29167,-2
33.30000,-2
33.30833,-2
33.31667,-2
33.32500,-2
33.33333,-2
33.34167,-2
33.35000,-2
33.35833,-2
33.36667,-2
33.37500,-2
33.38333,-2
33.39167,-1
33.40000,-1
33.40833,-1
33.41667,-1
33.42500,-1
33.43333,-1
33.44167,-1
33.45000,-2
33.45833,-2
33.46667,-2
33.47500,-2
33.48333,-2
33.49167,-2
33.50000,-2
33.50833,-2
33.51667,-2
33.52500,-2
33.53333,-2
33.54167,-2
33.55000,-2
33.55833,-2
33.56667,-2
33.57500,-1
33.58333,-1
33.59167,-1
33.60000,-1
33.60833,-1
33.61667,-1
33.62500,-1
33.63333,-1
33.64167,-1
33.65000,-1
33.65833,-0
33.66667,-0
33.67500,-0
33.68333,-0
33.69167,-0
33.70000,-0
33.70833,-0
33.71667,-1
33.72500,-1
33.73333,-1
33.74167,-1
33.75000,-1
33.75833,-1
33.76667,-1
33.77500,-1
33.78333,-1
33.79167,-1
33.80000,-0
33.80833,-0
33.81667,-1
33.82500,-0
33.83333,-0
33.84167,-0
33.85000,0
33.85833,0
33.86667,-0
33.87500,-0
33.88333,-1
33.89167,-1
33.90000,-1
33.90833,-1
33.91667,-1
33.92500,-1
33.93333,-0
33.94167,-0
33.95000,-1
33.95833,-1
33.96667,-1
33.97500,-1
33.98333,-1
33.99167,-1
34.00000,-0
34.00833,-0
34.01667,-0
34.02500,-0
34.03333,-0
34.04167,-0
34.05000,-0
34.05833,-1
34.06667,-1
34.07500,-1
34.08333,-1
34.09167,-1
34.10000,-1
34.10833,-1
34.11667,-1
34.12500,-1
34.13333,-1
34.14167,-1
34.15000,-1
34.15833,-1
34.16667,-1
34.17500,-1
34.18333,-1
34.19167,-1
34.20000,-1
34.20833,-1
34.21667,-1
34.22500,-1
34.23333,-1
34.24167,-1
34.25000,-1
34.25833,-1
34.26667,-1
34.27500,-1
34.28333,-1
34.29167,-1
34.30000,-1
34.30833,-1
34.31667,-1
34.32500,-1
34.33333,-1
34.34167,-1
34.35000,-1
34.35833,-1
34.36667,-1
34.37500,-1
34.38333,-1
34.39167,-0
34.40000,-0
34.40833,-1
34.41667,-1
34.42500,-1
34.43333,-1
34.44167,-1
34.45000,-1
34.45833,-2
34.46667,-2
34.47500,-2
34.48333,-2
34.49167,-2
34.50000,-1
34.50833,-1
34.51667,-1
34.52500,-1
34.53333,-1
34.54167,-2
34.55000,-2
34.55833,-1
34.56667,-1
34.57500,-1
34.58333,-1
34.59167,-1
34.60000,-1
34.60833,-1
34.61667,-1
34.62500,-1
34.63333,-2
34.64167,-2
34.65000,-2
34.65833,-2
34.66667,-1
34.67500,-1
34.68333,-1
34.69167,-1
34.70000,-1
34.70833,-1
34.71667,-1
34.72500,-1
34.73333,-1
34.74167,-1
34.75000,-1
34.75833,-1
34.76667,-1
34.77500,-1
34.78333,-2
34.79167,-2
34.80000,-2
34.80833,-2
34.81667,-2
34.82500,-2
34.83333,-2
34.84167,-2
34.85000,-2
34.85833,-2
34.86667,-1
34.87500,-1
34.88333,-1
34.89167,-2
34.90000,-2
34.90833,-2
34.91667,-2
34.92500,-1
34.93333,-1
34.94167,-1
34.95000,-1
34.95833,-1
34.96667,-1
34.97500,-1
34.98333,-1
34.99167,-1
35.00000,-1
35.00833,-1
35.01667,-1
35.02500,-1
35.03333,-1
35.04167,-1
35.05000,-0
35.05833,-0
35.06667,-1
35.07500,-1
35.08333,-1
35.09167,-1
35.10000,-1
35.10833,-1
35.11667,-1
35.12500,-0
35.13333,-0
35.14167,-0
35.15000,-0
35.15833,-0
35.16667,0
35.17500,-0
35.18333,-0
35.19167,-1
35.20000,-1
35.20833,-1
35.21667,-0
35.22500,-0
35.23333,-1
35.24167,-1
35.25000,-1
35.25833,-1
35.26667,-1
35.27500,-1
35.28333,-1
35.29167,-1
35.30000,-1
35.30833,-1
35.31667,-1
35.32500,-1
35.33333,-1
35.34167,-1
35.35000,-1
35.35833,-1
35.36667,-1
35.37500,-0
35.38333,-0
35.39167,-0
35.40000,-0
35.40833,-1
35.41667,-1
35.42500,-1
35.43333,-1
35.44167,-1
35.45000,-1
35.45833,-1
35.46667,-1
35.47500,-1
35.48333,-2
35.49167,-2
35.50000,-2
35.50833,-2
35.51667,-2
35.52500,-2
35.53333,-2
35.54167,-2
35.55000,-2
35.55833,-2
35.56667,-1
35.57500,-1
35.58333,-1
35.59167,-1
35.60000,-1
35.60833,-2
35.61667,-1
35.62500,-1
35.63333,-1
35.64167,-1
35.65000,-1
35.65833,-1
35.66667,-0
35.67500,-0
35.68333,-0
35.69167,-0
35.70000,-0
35.70833,-1
35.71667,-1
35.72500,-0
35.73333,-0
35.74167,-1
35.75000,-1
35.75833,-1
35.76667,-1
35.77500,-1
35.78333,-1
35.79167,-1
35.80000,-1
35.80833,-2
35.81667,-2
35.82500,-2
35.83333,-1
35.84167,-1
35.85000,-1
35.85833,-2
35.86667,-2
35.87500,-2
35.88333,-2
35.89167,-2
35.90000,-2
35.90833,-2
35.91667,-2
35.92500,-2
35.93333,-3
35.94167,-2
35.95000,-2
35.95833,-2
35.96667,-2
35.97500,-2
35.98333,-2
35.99167,-2
36.00000,-2
36.00833,-2
36.01667,-2
36.02500,-2
36.03333,-2
36.04167,-2
36.05000,-2
36.05833,-2
36.06667,-2
36.07500,-2
36.08333,-2
36.09167,-2
36.10000,-2
36.10833,-2
36.11667,-2
36.12500,-3
36.13333,-3
36.14167,-3
36.15000,-3
36.15833,-3
36.16667,-2
36.17500,-2
36.18333,-2
36.19167,-2
36.20000,-2
36.20833,-2
36.21667,-2
36.22500,-2
36.23333,-2
36.24167,-2
36.25000,-2
36.25833,-2
36.26667,-2
36.27500,-2
36.28333,-2
36.29167,-2
36.30000,-2
36.30833,-2
36.31667,-2
36.32500,-2
36.33333,-2
36.34167,-2
36.35000,-2
36.35833,-2
36.36667,-2
36.37500,-3
36.38333,-3
36.39167,-3
36.40000,-2
36.40833,-2
36.41667,-2
36.42500,-2
36.43333,-2
36.44167,-2
36.45000,-2
36.45833,-2
36.46667,-2
36.47500,-2
36.48333,-2
36.49167,-2
36.50000,-2
36.50833,-2
36.51667,-2
36.52500,-3
36.53333,-3
36.54167,-3
36.55000,-2
36.55833,-2
36.56667,-2
36.57500,-2
36.58333,-2
36.59167,-3
36.60000,-2
36.60833,-2
36.61667,-2
36.62500,-2
36.63333,-2
36.64167,-3
36.65000,-2
36.65833,-2
36.66667,-3
36.67500,-3
36.68333,-3
36.69167,-2
36.70000,-2
36.70833,-2
36.71667,-2
36.72500,-2
36.73333,-2
36.74167,-2
36.75000,-2
36.75833,-2
36.76667,-2
36.77500,-2
36.78333,-2
36.79167,-2
36.80000,-2
36.80833,-1
36.81667,-1
36.82500,-1
36.83333,-1
36.84167,-2
36.85000,-2
36.85833,-2
36.86667,-2
36.87500,-2
36.88333,-2
36.89167,-1
36.90000,-1
36.90833,-1
36.91667,-1
36.92500,-1
36.93333,-1
36.94167,-1
36.95000,-1
36.95833,-0
36.96667,-1
36.97500,-1
36.98333,-1
36.99167,-1
37.00000,-1
37.00833,-1
37.01667,-1
37.02500,-1
37.03333,-1
37.04167,-1
37.05000,-2
37.05833,-1
37.06667,-1
37.07500,-1
37.08333,-1
37.09167,-1
37.10000,-1
37.10833,-1
37.11667,-1
37.12500,-1
37.13333,-0
37.14167,-0
37.15000,0
37.15833,-0
37.16667,-0
37.17500,-1
37.18333,-1
37.19167,-1
37.20000,-1
37.20833,-2
37.21667,-2
37.22500,-1
37.23333,-2
37.24167,-2
37.25000,-2
37.25833,-2
37.26667,-2
37.27500,-2
37.28333,-2
37.29167,-2
37.30000,-2
37.30833,-2
37.31667,-2
37.32500,-1
37.33333,-1
37.34167,-1
37.35000,-1
37.35833,-1
37.36667,-1
37.37500,-1
37.38333,-1
37.39167,-2
37.40000,-2
37.40833,-1
37.41667,-1
37.42500,-1
37.43333,-1
37.44167,-1
37.45000,-1
37.45833,-1
37.46667,-1
37.47500,-2
37.48333,-2
37.49167,-2
37.50000,-2
37.50833,-2
37.51667,-2
37.52500,-2
37.53333,-2
37.54167,-2
37.55000,-2
37.55833,-2
37.56667,-2
37.57500,-1
37.58333,-1
37.59167,-1
37.60000,-1
37.60833,-1
37.61667,-2
37.62500,-2
37.63333,-2
37.64167,-1
37.65000,-1
37.65833,-1
37.66667,-2
37.67500,-2
37.68333,-2
37.69167,-2
37.70000,-2
37.70833,-2
37.71667,-2
37.72500,-2
37.73333,-2
37.74167,-2
37.75000,-1
37.75833,-1
37.76667,-1
37.77500,-1
37.78333,-1
37.79167,-1
37.80000,-1
37.80833,-1
37.81667,-1
37.82500,-1
37.83333,-1
37.84167,-1
37.85000,-1
37.85833,-1
37.86667,-1
37.87500,-1
37.88333,-1
37.89167,-1
37.90000,-1
37.90833,-1
37.91667,-1
37.92500,-1
37.93333,-1
37.94167,-1
37.95000,-1
37.95833,-1
37.96667,-1
37.97500,-1
37.98333,-1
37.99167,-1
38.00000,-1
38.00833,-1
38.01667,-1
38.02500,-1
38.03333,-1
38.04167,-1
38.05000,-1
38.05833,-1
38.06667,-1
38.07500,-1
38.08333,-1
38.09167,-1
38.10000,-2
38.10833,-1
38.11667,-1
38.12500,-2
38.13333,-2
38.14167,-1
38.15000,-1
38.15833,-1
38.16667,-0
38.17500,-0
38.18333,-0
38.19167,-1
38.20000,-1
38.20833,-1
38.21667,-1
38.22500,-1
38.23333,-1
38.24167,-1
38.25000,-1
38.25833,-0
38.26667,0
38.27500,0
38.28333,0
38.29167,-0
38.30000,-1
38.30833,-1
38.31667,-1
38.32500,-1
38.33333,-1
38.34167,-1
38.35000,-1
38.35833,-0
38.36667,-0
38.37500,-0
38.38333,-1
38.39167,-1
38.40000,-1
38.40833,-0
38.41667,-0
38.42500,0
38.43333,0
38.44167,0
38.45000,0
38.45833,1
38.46667,1
38.47500,1
38.48333,1
38.49167,1
38.50000,1
38.50833,1
38.51667,1
38.52500,1
38.53333,1
38.54167,1
38.55000,1
38.55833,1
38.56667,0
38.57500,0
38.58333,0
38.59167,0
38.60000,0
38.60833,0
38.61667,0
38.62500,0
38.63333,0
38.64167,0
38.65000,0
38.65833,-0
38.66667,-0
38.67500,-0
38.68333,-0
38.69167,-0
38.70000,-0
38.70833,-0
38.71667,0
38.72500,0
38.73333,0
38.74167,0
38.75000,-0
38.75833,-0
38.76667,0
38.77500,1
38.78333,1
38.79167,1
38.80000,1
38.80833,1
38.81667,1
38.82500,1
38.83333,0
38.84167,0
38.85000,0
38.85833,-0
38.86667,0
38.87500,0
38.88333,0
38.89167,0
38.90000,0
38.90833,0
38.91667,0
38.92500,1
38.93333,1
38.94167,1
38.95000,1
38.95833,1
38.96667,1
38.97500,1
38.98333,1
38.99167,1
39.00000,1
39.00833,1
39.01667,1
39.02500,1
39.03333,1
39.04167,1
39.05000,1
39.05833,0
39.06667,0
39.07500,0
39.08333,0
39.09167,-0
39.10000,-0
39.10833,-1
39.11667,-1
39.12500,-1
39.13333,-0
39.14167,-0
39.15000,-0
39.15833,-0
39.16667,-1
39.17500,-1
39.18333,-1
39.19167,-2
39.20000,-2
39.20833,-2
39.21667,-2
39.22500,-2
39.23333,-2
39.24167,-2
39.25000,-2
39.25833,-1
39.26667,-1
39.27500,-1
39.28333,-1
39.29167,-1
39.30000,-1
39.30833,-2
39.31667,-2
39.32500,-2
39.33333,-2
39.34167,-1
39.35000,-1
39.35833,-0
39.36667,0
39.37500,0
39.38333,0
39.39167,0
39.40000,0
39.40833,1
39.41667,0
39.42500,0
39.43333,-0
39.44167,-0
39.45000,-0
39.45833,-0
39.46667,0
39.47500,0
39.48333,1
39.49167,0
39.50000,-0
39.50833,-0
39.51667,-1
39.52500,-1
39.53333,-1
39.54167,-1
39.55000,-1
39.55833,-1
39.56667,-1
39.57500,-1
39.58333,-1
39.59167,-1
39.60000,-1
39.60833,-2
39.61667,-2
39.62500,-2
39.63333,-2
39.64167,-2
39.65000,-2
39.65833,-2
39.66667,-2
39.67500,-2
39.68333,-1
39.69167,-1
39.70000,-1
39.70833,-1
39.71667,-1
39.72500,-1
39.73333,-1
39.74167,-1
39.75000,-1
39.75833,-1
39.76667,-1
39.77500,-1
39.78333,-1
39.79167,-1
39.80000,-0
39.80833,-0
39.81667,-0
39.82500,-0
39.83333,-0
39.84167,-0
39.85000,-1
39.85833,-1
39.86667,-0
39.87500,-0
39.88333,-0
39.89167,-0
39.90000,-0
39.90833,-0
39.91667,-0
39.92500,-0
39.93333,-1
39.94167,-1
39.95000,-1
39.95833,-1
39.96667,-1
39.97500,-1
39.98333,-1
39.99167,-1
40.00000,-1

[Fraction Collection Report]
# of Fractions,0
