[Header]
Application Name,LabSolutions
Version,5.97 SP1
Data File Name,C:\Users\cremerlab\Desktop\griffin\2021-03-26_calibration\2021-03-26_calibration_3262021_006_006.lcd
Output Date,3/26/2021
Output Time,9:46:18 PM

[File Information]
Type,Data File
Generated,3/26/2021 9:05:58 PM
Generated by,System Administrator
Modified,3/26/2021 9:46:18 PM
Modified by,System Administrator

[Sample Information]
Operator Name,System Administrator
Acquired,3/26/2021 9:06:17 PM
Sample Type,1:Standard
Level,6
Sample Name,2021-03-26_calibration_05mM
Sample ID,006
ISTD Amount1,1
ISTD Amount2,1
ISTD Amount3,1
ISTD Amount4,1
ISTD Amount5,1
ISTD Amount6,1
ISTD Amount7,1
ISTD Amount8,1
ISTD Amount9,1
ISTD Amount10,1
ISTD Amount11,1
ISTD Amount12,1
ISTD Amount13,1
ISTD Amount14,1
ISTD Amount15,1
ISTD Amount16,1
ISTD Amount17,1
ISTD Amount18,1
ISTD Amount19,1
ISTD Amount20,1
ISTD Amount21,1
ISTD Amount22,1
ISTD Amount23,1
ISTD Amount24,1
ISTD Amount25,1
ISTD Amount26,1
ISTD Amount27,1
ISTD Amount28,1
ISTD Amount29,1
ISTD Amount30,1
ISTD Amount31,1
ISTD Amount32,1
Sample Amount,1
Dilution Factor,1
Vial#,6
Injection Volume,20

[Original Files]
Data File,C:\Users\cremerlab\Desktop\griffin\2021-03-26_calibration\2021-03-26_calibration_3262021_006_006.lcd
Method File,C:\LabSolutions\Data\Project1\organicacidsetc2.lcm
Batch File,C:\Users\cremerlab\Desktop\griffin\2021-03-26_calibration\2021-03-26_calibration.lcb
Report Format File,c:\LabSolutions\System\DEFAULT.lsr

[File Description]


[Configuration]
Instrument Name,HPLC-PC-Instrument1
Instrument #,1
Line #,1
# of Detectors,2
Detector ID,Detector A,Detector B
Detector Name,Detector A,Detector B
# of Channels,1,1

[LC Chromatogram(Detector B-Ch1)]
Interval(msec),500
# of Points,4801
Start Time(min),0.000
End Time(min),40.000
Intensity Units,mV
Intensity Multiplier,0.001
R.Time (min),Intensity
0.00000,0
0.00833,0
0.01667,0
0.02500,0
0.03333,0
0.04167,-0
0.05000,-0
0.05833,-0
0.06667,-0
0.07500,-0
0.08333,-0
0.09167,-0
0.10000,0
0.10833,-0
0.11667,-0
0.12500,-0
0.13333,-0
0.14167,0
0.15000,-0
0.15833,-0
0.16667,-1
0.17500,-1
0.18333,-1
0.19167,-1
0.20000,-1
0.20833,-1
0.21667,-1
0.22500,-1
0.23333,-1
0.24167,-1
0.25000,-1
0.25833,-0
0.26667,-0
0.27500,-0
0.28333,-1
0.29167,-1
0.30000,-1
0.30833,-1
0.31667,-1
0.32500,-2
0.33333,-2
0.34167,-1
0.35000,-1
0.35833,-1
0.36667,-1
0.37500,-1
0.38333,-1
0.39167,-1
0.40000,-1
0.40833,-1
0.41667,-1
0.42500,-1
0.43333,-2
0.44167,-1
0.45000,-1
0.45833,-1
0.46667,-1
0.47500,-1
0.48333,-1
0.49167,-1
0.50000,-2
0.50833,-2
0.51667,-2
0.52500,-2
0.53333,-1
0.54167,-1
0.55000,-0
0.55833,-0
0.56667,-0
0.57500,-0
0.58333,0
0.59167,0
0.60000,0
0.60833,0
0.61667,0
0.62500,-0
0.63333,-0
0.64167,-0
0.65000,-1
0.65833,-1
0.66667,-1
0.67500,-1
0.68333,-2
0.69167,-2
0.70000,-2
0.70833,-2
0.71667,-2
0.72500,-2
0.73333,-2
0.74167,-2
0.75000,-2
0.75833,-2
0.76667,-2
0.77500,-2
0.78333,-2
0.79167,-2
0.80000,-2
0.80833,-2
0.81667,-2
0.82500,-2
0.83333,-2
0.84167,-2
0.85000,-2
0.85833,-2
0.86667,-2
0.87500,-2
0.88333,-2
0.89167,-2
0.90000,-2
0.90833,-2
0.91667,-1
0.92500,-2
0.93333,-1
0.94167,-1
0.95000,-1
0.95833,-1
0.96667,-1
0.97500,-1
0.98333,-1
0.99167,-1
1.00000,-1
1.00833,-1
1.01667,-1
1.02500,-1
1.03333,-2
1.04167,-2
1.05000,-2
1.05833,-2
1.06667,-2
1.07500,-2
1.08333,-2
1.09167,-2
1.10000,-2
1.10833,-2
1.11667,-2
1.12500,-2
1.13333,-2
1.14167,-2
1.15000,-2
1.15833,-2
1.16667,-2
1.17500,-2
1.18333,-2
1.19167,-2
1.20000,-2
1.20833,-2
1.21667,-1
1.22500,-1
1.23333,-1
1.24167,-1
1.25000,-1
1.25833,-1
1.26667,-1
1.27500,-1
1.28333,-1
1.29167,-1
1.30000,-1
1.30833,-1
1.31667,-1
1.32500,-2
1.33333,-2
1.34167,-2
1.35000,-2
1.35833,-2
1.36667,-2
1.37500,-2
1.38333,-2
1.39167,-2
1.40000,-2
1.40833,-2
1.41667,-2
1.42500,-2
1.43333,-2
1.44167,-2
1.45000,-2
1.45833,-2
1.46667,-2
1.47500,-2
1.48333,-2
1.49167,-2
1.50000,-2
1.50833,-2
1.51667,-3
1.52500,-3
1.53333,-2
1.54167,-2
1.55000,-2
1.55833,-2
1.56667,-2
1.57500,-2
1.58333,-2
1.59167,-2
1.60000,-2
1.60833,-2
1.61667,-1
1.62500,-1
1.63333,-1
1.64167,-2
1.65000,-2
1.65833,-2
1.66667,-2
1.67500,-2
1.68333,-2
1.69167,-2
1.70000,-2
1.70833,-2
1.71667,-2
1.72500,-2
1.73333,-2
1.74167,-2
1.75000,-2
1.75833,-2
1.76667,-2
1.77500,-2
1.78333,-2
1.79167,-2
1.80000,-2
1.80833,-2
1.81667,-2
1.82500,-2
1.83333,-2
1.84167,-3
1.85000,-3
1.85833,-2
1.86667,-2
1.87500,-2
1.88333,-1
1.89167,-1
1.90000,-1
1.90833,-1
1.91667,-1
1.92500,-2
1.93333,-2
1.94167,-2
1.95000,-2
1.95833,-2
1.96667,-2
1.97500,-2
1.98333,-2
1.99167,-2
2.00000,-2
2.00833,-2
2.01667,-3
2.02500,-3
2.03333,-3
2.04167,-3
2.05000,-3
2.05833,-2
2.06667,-2
2.07500,-2
2.08333,-2
2.09167,-2
2.10000,-2
2.10833,-2
2.11667,-2
2.12500,-3
2.13333,-3
2.14167,-3
2.15000,-3
2.15833,-3
2.16667,-3
2.17500,-3
2.18333,-2
2.19167,-2
2.20000,-2
2.20833,-2
2.21667,-2
2.22500,-2
2.23333,-2
2.24167,-2
2.25000,-2
2.25833,-2
2.26667,-2
2.27500,-2
2.28333,-2
2.29167,-2
2.30000,-2
2.30833,-2
2.31667,-2
2.32500,-3
2.33333,-3
2.34167,-3
2.35000,-3
2.35833,-3
2.36667,-3
2.37500,-3
2.38333,-3
2.39167,-3
2.40000,-3
2.40833,-3
2.41667,-3
2.42500,-3
2.43333,-3
2.44167,-2
2.45000,-2
2.45833,-2
2.46667,-2
2.47500,-2
2.48333,-2
2.49167,-2
2.50000,-2
2.50833,-2
2.51667,-2
2.52500,-3
2.53333,-3
2.54167,-3
2.55000,-3
2.55833,-3
2.56667,-4
2.57500,-3
2.58333,-3
2.59167,-3
2.60000,-3
2.60833,-3
2.61667,-3
2.62500,-3
2.63333,-3
2.64167,-2
2.65000,-2
2.65833,-2
2.66667,-2
2.67500,-1
2.68333,-1
2.69167,-2
2.70000,-2
2.70833,-2
2.71667,-1
2.72500,-1
2.73333,-1
2.74167,-1
2.75000,-1
2.75833,-1
2.76667,-0
2.77500,-0
2.78333,-1
2.79167,-1
2.80000,-1
2.80833,-2
2.81667,-2
2.82500,-1
2.83333,-1
2.84167,-2
2.85000,-2
2.85833,-2
2.86667,-1
2.87500,-1
2.88333,-1
2.89167,-1
2.90000,-1
2.90833,-1
2.91667,-1
2.92500,-1
2.93333,-1
2.94167,-2
2.95000,-2
2.95833,-2
2.96667,-2
2.97500,-2
2.98333,-2
2.99167,-2
3.00000,-2
3.00833,-2
3.01667,-2
3.02500,-2
3.03333,-2
3.04167,-3
3.05000,-3
3.05833,-3
3.06667,-3
3.07500,-3
3.08333,-3
3.09167,-3
3.10000,-2
3.10833,-2
3.11667,-2
3.12500,-2
3.13333,-2
3.14167,-2
3.15000,-2
3.15833,-2
3.16667,-2
3.17500,-2
3.18333,-3
3.19167,-3
3.20000,-3
3.20833,-3
3.21667,-3
3.22500,-3
3.23333,-3
3.24167,-3
3.25000,-3
3.25833,-3
3.26667,-3
3.27500,-2
3.28333,-2
3.29167,-2
3.30000,-2
3.30833,-2
3.31667,-3
3.32500,-3
3.33333,-3
3.34167,-3
3.35000,-3
3.35833,-3
3.36667,-3
3.37500,-3
3.38333,-3
3.39167,-3
3.40000,-3
3.40833,-3
3.41667,-2
3.42500,-2
3.43333,-2
3.44167,-2
3.45000,-2
3.45833,-2
3.46667,-3
3.47500,-3
3.48333,-3
3.49167,-3
3.50000,-3
3.50833,-2
3.51667,-2
3.52500,-2
3.53333,-2
3.54167,-2
3.55000,-2
3.55833,-2
3.56667,-2
3.57500,-2
3.58333,-3
3.59167,-3
3.60000,-2
3.60833,-2
3.61667,-2
3.62500,-2
3.63333,-2
3.64167,-2
3.65000,-2
3.65833,-2
3.66667,-2
3.67500,-2
3.68333,-2
3.69167,-2
3.70000,-2
3.70833,-2
3.71667,-2
3.72500,-2
3.73333,-2
3.74167,-2
3.75000,-2
3.75833,-2
3.76667,-2
3.77500,-3
3.78333,-3
3.79167,-3
3.80000,-3
3.80833,-3
3.81667,-2
3.82500,-3
3.83333,-3
3.84167,-3
3.85000,-3
3.85833,-3
3.86667,-3
3.87500,-3
3.88333,-3
3.89167,-3
3.90000,-3
3.90833,-3
3.91667,-2
3.92500,-2
3.93333,-2
3.94167,-3
3.95000,-3
3.95833,-3
3.96667,-3
3.97500,-3
3.98333,-3
3.99167,-3
4.00000,-3
4.00833,-3
4.01667,-3
4.02500,-3
4.03333,-3
4.04167,-3
4.05000,-3
4.05833,-3
4.06667,-3
4.07500,-3
4.08333,-3
4.09167,-3
4.10000,-3
4.10833,-3
4.11667,-3
4.12500,-3
4.13333,-4
4.14167,-4
4.15000,-4
4.15833,-4
4.16667,-4
4.17500,-4
4.18333,-4
4.19167,-4
4.20000,-4
4.20833,-4
4.21667,-4
4.22500,-4
4.23333,-4
4.24167,-4
4.25000,-4
4.25833,-4
4.26667,-3
4.27500,-3
4.28333,-3
4.29167,-3
4.30000,-3
4.30833,-3
4.31667,-3
4.32500,-3
4.33333,-2
4.34167,-2
4.35000,-2
4.35833,-3
4.36667,-3
4.37500,-4
4.38333,-4
4.39167,-4
4.40000,-4
4.40833,-4
4.41667,-3
4.42500,-3
4.43333,-3
4.44167,-3
4.45000,-3
4.45833,-3
4.46667,-3
4.47500,-3
4.48333,-3
4.49167,-4
4.50000,-4
4.50833,-3
4.51667,-3
4.52500,-3
4.53333,-3
4.54167,-3
4.55000,-3
4.55833,-4
4.56667,-4
4.57500,-4
4.58333,-4
4.59167,-4
4.60000,-4
4.60833,-4
4.61667,-4
4.62500,-4
4.63333,-3
4.64167,-3
4.65000,-3
4.65833,-3
4.66667,-3
4.67500,-3
4.68333,-3
4.69167,-3
4.70000,-3
4.70833,-3
4.71667,-3
4.72500,-3
4.73333,-3
4.74167,-3
4.75000,-3
4.75833,-4
4.76667,-4
4.77500,-4
4.78333,-4
4.79167,-4
4.80000,-4
4.80833,-4
4.81667,-4
4.82500,-4
4.83333,-4
4.84167,-3
4.85000,-3
4.85833,-3
4.86667,-3
4.87500,-3
4.88333,-3
4.89167,-3
4.90000,-3
4.90833,-3
4.91667,-4
4.92500,-4
4.93333,-4
4.94167,-4
4.95000,-4
4.95833,-5
4.96667,-4
4.97500,-4
4.98333,-4
4.99167,-4
5.00000,-3
5.00833,-3
5.01667,-4
5.02500,-4
5.03333,-4
5.04167,-3
5.05000,-3
5.05833,-3
5.06667,-3
5.07500,-3
5.08333,-3
5.09167,-3
5.10000,-3
5.10833,-3
5.11667,-3
5.12500,-3
5.13333,-3
5.14167,-2
5.15000,-2
5.15833,-2
5.16667,-2
5.17500,-2
5.18333,-3
5.19167,-3
5.20000,-3
5.20833,-3
5.21667,-3
5.22500,-3
5.23333,-3
5.24167,-3
5.25000,-4
5.25833,-4
5.26667,-4
5.27500,-4
5.28333,-4
5.29167,-4
5.30000,-3
5.30833,-3
5.31667,-3
5.32500,-3
5.33333,-3
5.34167,-3
5.35000,-3
5.35833,-3
5.36667,-3
5.37500,-3
5.38333,-3
5.39167,-3
5.40000,-3
5.40833,-3
5.41667,-3
5.42500,-3
5.43333,-3
5.44167,-3
5.45000,-3
5.45833,-2
5.46667,-3
5.47500,-3
5.48333,-3
5.49167,-4
5.50000,-4
5.50833,-4
5.51667,-4
5.52500,-4
5.53333,-4
5.54167,-4
5.55000,-3
5.55833,-3
5.56667,-3
5.57500,-3
5.58333,-3
5.59167,-3
5.60000,-3
5.60833,-3
5.61667,-3
5.62500,-3
5.63333,-3
5.64167,-3
5.65000,-3
5.65833,-4
5.66667,-4
5.67500,-4
5.68333,-4
5.69167,-4
5.70000,-4
5.70833,-4
5.71667,-4
5.72500,-4
5.73333,-4
5.74167,-4
5.75000,-4
5.75833,-4
5.76667,-4
5.77500,-4
5.78333,-4
5.79167,-3
5.80000,-3
5.80833,-3
5.81667,-3
5.82500,-3
5.83333,-3
5.84167,-3
5.85000,-3
5.85833,-3
5.86667,-3
5.87500,-3
5.88333,-3
5.89167,-3
5.90000,-3
5.90833,-3
5.91667,-3
5.92500,-3
5.93333,-4
5.94167,-4
5.95000,-4
5.95833,-4
5.96667,-4
5.97500,-4
5.98333,-4
5.99167,-4
6.00000,-3
6.00833,-3
6.01667,-3
6.02500,-3
6.03333,-2
6.04167,-2
6.05000,-2
6.05833,-2
6.06667,-3
6.07500,-3
6.08333,-3
6.09167,-3
6.10000,-3
6.10833,-3
6.11667,-3
6.12500,-3
6.13333,-3
6.14167,-3
6.15000,-3
6.15833,-3
6.16667,-3
6.17500,-3
6.18333,-3
6.19167,-3
6.20000,-3
6.20833,-3
6.21667,-3
6.22500,-3
6.23333,-3
6.24167,-3
6.25000,-3
6.25833,-2
6.26667,-2
6.27500,-3
6.28333,-3
6.29167,-3
6.30000,-3
6.30833,-3
6.31667,-3
6.32500,-3
6.33333,-3
6.34167,-4
6.35000,-4
6.35833,-4
6.36667,-4
6.37500,-4
6.38333,-4
6.39167,-4
6.40000,-3
6.40833,-3
6.41667,-3
6.42500,-3
6.43333,-3
6.44167,-3
6.45000,-3
6.45833,-4
6.46667,-4
6.47500,-3
6.48333,-3
6.49167,-3
6.50000,-3
6.50833,-3
6.51667,-3
6.52500,-3
6.53333,-3
6.54167,-3
6.55000,-4
6.55833,-4
6.56667,-3
6.57500,-3
6.58333,-3
6.59167,-3
6.60000,-3
6.60833,-4
6.61667,-3
6.62500,-3
6.63333,-3
6.64167,-4
6.65000,-4
6.65833,-4
6.66667,-4
6.67500,-4
6.68333,-4
6.69167,-4
6.70000,-4
6.70833,-4
6.71667,-4
6.72500,-4
6.73333,-4
6.74167,-4
6.75000,-4
6.75833,-4
6.76667,-4
6.77500,-4
6.78333,-4
6.79167,-4
6.80000,-4
6.80833,-4
6.81667,-4
6.82500,-4
6.83333,-4
6.84167,-4
6.85000,-4
6.85833,-4
6.86667,-4
6.87500,-4
6.88333,-4
6.89167,-4
6.90000,-4
6.90833,-4
6.91667,-4
6.92500,-4
6.93333,-4
6.94167,-4
6.95000,-4
6.95833,-3
6.96667,-3
6.97500,-3
6.98333,-3
6.99167,-4
7.00000,-4
7.00833,-4
7.01667,-4
7.02500,-4
7.03333,-4
7.04167,-4
7.05000,-5
7.05833,-5
7.06667,-5
7.07500,-5
7.08333,-4
7.09167,-4
7.10000,-4
7.10833,-4
7.11667,-4
7.12500,-4
7.13333,-4
7.14167,-4
7.15000,-4
7.15833,-4
7.16667,-4
7.17500,-4
7.18333,-4
7.19167,-4
7.20000,-4
7.20833,-3
7.21667,-3
7.22500,-3
7.23333,-4
7.24167,-4
7.25000,-4
7.25833,-4
7.26667,-4
7.27500,-4
7.28333,-4
7.29167,-4
7.30000,-4
7.30833,-5
7.31667,-5
7.32500,-5
7.33333,-5
7.34167,-5
7.35000,-5
7.35833,-5
7.36667,-5
7.37500,-5
7.38333,-5
7.39167,-5
7.40000,-4
7.40833,-4
7.41667,-4
7.42500,-5
7.43333,-5
7.44167,-5
7.45000,-5
7.45833,-5
7.46667,-5
7.47500,-4
7.48333,-4
7.49167,-4
7.50000,-4
7.50833,-4
7.51667,-3
7.52500,-3
7.53333,-3
7.54167,-4
7.55000,-4
7.55833,-4
7.56667,-4
7.57500,-4
7.58333,-4
7.59167,-3
7.60000,-3
7.60833,-4
7.61667,-4
7.62500,-4
7.63333,-4
7.64167,-4
7.65000,-4
7.65833,-4
7.66667,-5
7.67500,-4
7.68333,-4
7.69167,-5
7.70000,-5
7.70833,-5
7.71667,-5
7.72500,-5
7.73333,-5
7.74167,-5
7.75000,-5
7.75833,-5
7.76667,-5
7.77500,-5
7.78333,-5
7.79167,-4
7.80000,-4
7.80833,-5
7.81667,-5
7.82500,-5
7.83333,-5
7.84167,-5
7.85000,-5
7.85833,-5
7.86667,-5
7.87500,-5
7.88333,-5
7.89167,-5
7.90000,-5
7.90833,-5
7.91667,-5
7.92500,-5
7.93333,-5
7.94167,-5
7.95000,-5
7.95833,-5
7.96667,-5
7.97500,-5
7.98333,-4
7.99167,-4
8.00000,-4
8.00833,-4
8.01667,-4
8.02500,-4
8.03333,-5
8.04167,-5
8.05000,-5
8.05833,-5
8.06667,-5
8.07500,-5
8.08333,-4
8.09167,-4
8.10000,-4
8.10833,-4
8.11667,-4
8.12500,-4
8.13333,-4
8.14167,-5
8.15000,-5
8.15833,-5
8.16667,-5
8.17500,-5
8.18333,-5
8.19167,-5
8.20000,-5
8.20833,-5
8.21667,-5
8.22500,-5
8.23333,-5
8.24167,-4
8.25000,-4
8.25833,-4
8.26667,-4
8.27500,-4
8.28333,-4
8.29167,-4
8.30000,-4
8.30833,-4
8.31667,-4
8.32500,-4
8.33333,-4
8.34167,-4
8.35000,-4
8.35833,-4
8.36667,-4
8.37500,-4
8.38333,-4
8.39167,-4
8.40000,-4
8.40833,-4
8.41667,-4
8.42500,-5
8.43333,-5
8.44167,-5
8.45000,-5
8.45833,-5
8.46667,-5
8.47500,-5
8.48333,-5
8.49167,-5
8.50000,-5
8.50833,-5
8.51667,-5
8.52500,-5
8.53333,-5
8.54167,-5
8.55000,-5
8.55833,-5
8.56667,-5
8.57500,-5
8.58333,-5
8.59167,-4
8.60000,-4
8.60833,-4
8.61667,-4
8.62500,-4
8.63333,-5
8.64167,-5
8.65000,-5
8.65833,-4
8.66667,-4
8.67500,-4
8.68333,-4
8.69167,-4
8.70000,-4
8.70833,-4
8.71667,-4
8.72500,-4
8.73333,-4
8.74167,-5
8.75000,-5
8.75833,-5
8.76667,-5
8.77500,-5
8.78333,-5
8.79167,-5
8.80000,-5
8.80833,-5
8.81667,-5
8.82500,-4
8.83333,-4
8.84167,-4
8.85000,-4
8.85833,-4
8.86667,-4
8.87500,-4
8.88333,-4
8.89167,-3
8.90000,-4
8.90833,-4
8.91667,-4
8.92500,-4
8.93333,-4
8.94167,-4
8.95000,-4
8.95833,-4
8.96667,-4
8.97500,-5
8.98333,-4
8.99167,-4
9.00000,-4
9.00833,-4
9.01667,-4
9.02500,-4
9.03333,-4
9.04167,-4
9.05000,-4
9.05833,-4
9.06667,-4
9.07500,-4
9.08333,-4
9.09167,-3
9.10000,-3
9.10833,-3
9.11667,-3
9.12500,-3
9.13333,-3
9.14167,-4
9.15000,-4
9.15833,-5
9.16667,-4
9.17500,-4
9.18333,-4
9.19167,-4
9.20000,-4
9.20833,-3
9.21667,-3
9.22500,-4
9.23333,-4
9.24167,-4
9.25000,-4
9.25833,-4
9.26667,-4
9.27500,-4
9.28333,-4
9.29167,-4
9.30000,-5
9.30833,-4
9.31667,-4
9.32500,-4
9.33333,-4
9.34167,-4
9.35000,-4
9.35833,-4
9.36667,-4
9.37500,-4
9.38333,-4
9.39167,-5
9.40000,-5
9.40833,-5
9.41667,-5
9.42500,-5
9.43333,-5
9.44167,-5
9.45000,-6
9.45833,-6
9.46667,-6
9.47500,-6
9.48333,-6
9.49167,-6
9.50000,-6
9.50833,-6
9.51667,-5
9.52500,-5
9.53333,-5
9.54167,-5
9.55000,-5
9.55833,-5
9.56667,-5
9.57500,-5
9.58333,-5
9.59167,-5
9.60000,-5
9.60833,-5
9.61667,-5
9.62500,-5
9.63333,-5
9.64167,-5
9.65000,-5
9.65833,-5
9.66667,-5
9.67500,-4
9.68333,-4
9.69167,-4
9.70000,-4
9.70833,-5
9.71667,-5
9.72500,-5
9.73333,-6
9.74167,-6
9.75000,-6
9.75833,-6
9.76667,-6
9.77500,-6
9.78333,-6
9.79167,-6
9.80000,-6
9.80833,-6
9.81667,-6
9.82500,-5
9.83333,-5
9.84167,-5
9.85000,-5
9.85833,-5
9.86667,-5
9.87500,-5
9.88333,-5
9.89167,-5
9.90000,-5
9.90833,-5
9.91667,-5
9.92500,-5
9.93333,-5
9.94167,-5
9.95000,-5
9.95833,-5
9.96667,-5
9.97500,-5
9.98333,-5
9.99167,-5
10.00000,-5
10.00833,-5
10.01667,-5
10.02500,-5
10.03333,-5
10.04167,-5
10.05000,-5
10.05833,-5
10.06667,-5
10.07500,-6
10.08333,-6
10.09167,-6
10.10000,-6
10.10833,-6
10.11667,-6
10.12500,-6
10.13333,-6
10.14167,-6
10.15000,-6
10.15833,-6
10.16667,-6
10.17500,-6
10.18333,-6
10.19167,-6
10.20000,-6
10.20833,-6
10.21667,-6
10.22500,-6
10.23333,-6
10.24167,-6
10.25000,-6
10.25833,-6
10.26667,-6
10.27500,-6
10.28333,-6
10.29167,-6
10.30000,-6
10.30833,-7
10.31667,-7
10.32500,-7
10.33333,-7
10.34167,-7
10.35000,-7
10.35833,-7
10.36667,-6
10.37500,-6
10.38333,-6
10.39167,-6
10.40000,-6
10.40833,-6
10.41667,-6
10.42500,-6
10.43333,-6
10.44167,-6
10.45000,-6
10.45833,-7
10.46667,-7
10.47500,-8
10.48333,-8
10.49167,-9
10.50000,-9
10.50833,-10
10.51667,-10
10.52500,-11
10.53333,-12
10.54167,-13
10.55000,-15
10.55833,-17
10.56667,-20
10.57500,-24
10.58333,-29
10.59167,-36
10.60000,-45
10.60833,-58
10.61667,-75
10.62500,-97
10.63333,-127
10.64167,-165
10.65000,-216
10.65833,-280
10.66667,-363
10.67500,-468
10.68333,-599
10.69167,-763
10.70000,-963
10.70833,-1206
10.71667,-1499
10.72500,-1847
10.73333,-2256
10.74167,-2732
10.75000,-3278
10.75833,-3899
10.76667,-4595
10.77500,-5367
10.78333,-6211
10.79167,-7124
10.80000,-8098
10.80833,-9125
10.81667,-10192
10.82500,-11288
10.83333,-12396
10.84167,-13501
10.85000,-14587
10.85833,-15636
10.86667,-16633
10.87500,-17563
10.88333,-18411
10.89167,-19167
10.90000,-19818
10.90833,-20359
10.91667,-20783
10.92500,-21086
10.93333,-21270
10.94167,-21333
10.95000,-21281
10.95833,-21117
10.96667,-20849
10.97500,-20483
10.98333,-20028
10.99167,-19494
11.00000,-18892
11.00833,-18230
11.01667,-17518
11.02500,-16768
11.03333,-15988
11.04167,-15187
11.05000,-14374
11.05833,-13557
11.06667,-12743
11.07500,-11939
11.08333,-11150
11.09167,-10382
11.10000,-9638
11.10833,-8922
11.11667,-8238
11.12500,-7586
11.13333,-6970
11.14167,-6389
11.15000,-5844
11.15833,-5335
11.16667,-4861
11.17500,-4421
11.18333,-4016
11.19167,-3642
11.20000,-3300
11.20833,-2988
11.21667,-2703
11.22500,-2444
11.23333,-2210
11.24167,-1997
11.25000,-1806
11.25833,-1634
11.26667,-1478
11.27500,-1339
11.28333,-1214
11.29167,-1102
11.30000,-1002
11.30833,-913
11.31667,-834
11.32500,-762
11.33333,-699
11.34167,-642
11.35000,-591
11.35833,-546
11.36667,-505
11.37500,-468
11.38333,-436
11.39167,-407
11.40000,-381
11.40833,-357
11.41667,-336
11.42500,-317
11.43333,-299
11.44167,-283
11.45000,-268
11.45833,-255
11.46667,-243
11.47500,-231
11.48333,-221
11.49167,-211
11.50000,-202
11.50833,-194
11.51667,-187
11.52500,-180
11.53333,-174
11.54167,-168
11.55000,-163
11.55833,-158
11.56667,-153
11.57500,-148
11.58333,-143
11.59167,-139
11.60000,-135
11.60833,-131
11.61667,-128
11.62500,-125
11.63333,-122
11.64167,-119
11.65000,-116
11.65833,-113
11.66667,-110
11.67500,-108
11.68333,-106
11.69167,-103
11.70000,-101
11.70833,-99
11.71667,-97
11.72500,-95
11.73333,-93
11.74167,-91
11.75000,-90
11.75833,-88
11.76667,-87
11.77500,-85
11.78333,-84
11.79167,-83
11.80000,-82
11.80833,-81
11.81667,-79
11.82500,-78
11.83333,-76
11.84167,-75
11.85000,-74
11.85833,-73
11.86667,-72
11.87500,-71
11.88333,-70
11.89167,-70
11.90000,-69
11.90833,-68
11.91667,-67
11.92500,-67
11.93333,-66
11.94167,-65
11.95000,-65
11.95833,-64
11.96667,-63
11.97500,-63
11.98333,-62
11.99167,-61
12.00000,-61
12.00833,-60
12.01667,-60
12.02500,-60
12.03333,-59
12.04167,-59
12.05000,-59
12.05833,-58
12.06667,-58
12.07500,-58
12.08333,-57
12.09167,-57
12.10000,-57
12.10833,-56
12.11667,-56
12.12500,-56
12.13333,-56
12.14167,-56
12.15000,-56
12.15833,-55
12.16667,-55
12.17500,-55
12.18333,-54
12.19167,-54
12.20000,-54
12.20833,-53
12.21667,-53
12.22500,-53
12.23333,-53
12.24167,-53
12.25000,-52
12.25833,-52
12.26667,-52
12.27500,-51
12.28333,-51
12.29167,-51
12.30000,-51
12.30833,-51
12.31667,-51
12.32500,-50
12.33333,-50
12.34167,-50
12.35000,-49
12.35833,-49
12.36667,-48
12.37500,-48
12.38333,-47
12.39167,-47
12.40000,-47
12.40833,-47
12.41667,-47
12.42500,-47
12.43333,-46
12.44167,-46
12.45000,-46
12.45833,-45
12.46667,-44
12.47500,-44
12.48333,-44
12.49167,-44
12.50000,-44
12.50833,-43
12.51667,-43
12.52500,-43
12.53333,-42
12.54167,-42
12.55000,-42
12.55833,-42
12.56667,-42
12.57500,-42
12.58333,-42
12.59167,-42
12.60000,-42
12.60833,-42
12.61667,-41
12.62500,-41
12.63333,-41
12.64167,-40
12.65000,-40
12.65833,-40
12.66667,-40
12.67500,-40
12.68333,-40
12.69167,-39
12.70000,-39
12.70833,-39
12.71667,-38
12.72500,-37
12.73333,-37
12.74167,-37
12.75000,-36
12.75833,-36
12.76667,-36
12.77500,-35
12.78333,-35
12.79167,-35
12.80000,-34
12.80833,-34
12.81667,-34
12.82500,-34
12.83333,-34
12.84167,-34
12.85000,-33
12.85833,-33
12.86667,-32
12.87500,-32
12.88333,-31
12.89167,-30
12.90000,-30
12.90833,-30
12.91667,-29
12.92500,-29
12.93333,-28
12.94167,-28
12.95000,-27
12.95833,-26
12.96667,-26
12.97500,-25
12.98333,-25
12.99167,-25
13.00000,-25
13.00833,-24
13.01667,-24
13.02500,-24
13.03333,-24
13.04167,-23
13.05000,-23
13.05833,-23
13.06667,-23
13.07500,-22
13.08333,-22
13.09167,-21
13.10000,-20
13.10833,-20
13.11667,-20
13.12500,-19
13.13333,-19
13.14167,-19
13.15000,-19
13.15833,-18
13.16667,-18
13.17500,-18
13.18333,-18
13.19167,-17
13.20000,-17
13.20833,-17
13.21667,-17
13.22500,-17
13.23333,-18
13.24167,-18
13.25000,-18
13.25833,-18
13.26667,-18
13.27500,-17
13.28333,-18
13.29167,-18
13.30000,-18
13.30833,-18
13.31667,-18
13.32500,-17
13.33333,-17
13.34167,-18
13.35000,-18
13.35833,-18
13.36667,-19
13.37500,-19
13.38333,-19
13.39167,-19
13.40000,-19
13.40833,-19
13.41667,-20
13.42500,-20
13.43333,-20
13.44167,-20
13.45000,-20
13.45833,-20
13.46667,-20
13.47500,-21
13.48333,-21
13.49167,-21
13.50000,-21
13.50833,-21
13.51667,-21
13.52500,-21
13.53333,-21
13.54167,-21
13.55000,-21
13.55833,-21
13.56667,-21
13.57500,-21
13.58333,-21
13.59167,-21
13.60000,-22
13.60833,-22
13.61667,-22
13.62500,-23
13.63333,-22
13.64167,-22
13.65000,-22
13.65833,-21
13.66667,-21
13.67500,-22
13.68333,-22
13.69167,-21
13.70000,-21
13.70833,-22
13.71667,-22
13.72500,-22
13.73333,-22
13.74167,-22
13.75000,-22
13.75833,-22
13.76667,-22
13.77500,-22
13.78333,-22
13.79167,-22
13.80000,-22
13.80833,-22
13.81667,-22
13.82500,-22
13.83333,-22
13.84167,-22
13.85000,-21
13.85833,-21
13.86667,-21
13.87500,-21
13.88333,-21
13.89167,-21
13.90000,-21
13.90833,-21
13.91667,-21
13.92500,-22
13.93333,-22
13.94167,-21
13.95000,-21
13.95833,-21
13.96667,-21
13.97500,-21
13.98333,-21
13.99167,-21
14.00000,-21
14.00833,-21
14.01667,-20
14.02500,-20
14.03333,-20
14.04167,-20
14.05000,-20
14.05833,-20
14.06667,-20
14.07500,-20
14.08333,-20
14.09167,-20
14.10000,-20
14.10833,-20
14.11667,-20
14.12500,-20
14.13333,-20
14.14167,-20
14.15000,-20
14.15833,-19
14.16667,-19
14.17500,-19
14.18333,-19
14.19167,-20
14.20000,-20
14.20833,-21
14.21667,-20
14.22500,-20
14.23333,-20
14.24167,-20
14.25000,-20
14.25833,-20
14.26667,-20
14.27500,-20
14.28333,-20
14.29167,-19
14.30000,-19
14.30833,-20
14.31667,-20
14.32500,-20
14.33333,-20
14.34167,-20
14.35000,-20
14.35833,-20
14.36667,-20
14.37500,-20
14.38333,-20
14.39167,-20
14.40000,-20
14.40833,-20
14.41667,-20
14.42500,-19
14.43333,-19
14.44167,-19
14.45000,-18
14.45833,-18
14.46667,-19
14.47500,-19
14.48333,-19
14.49167,-19
14.50000,-19
14.50833,-19
14.51667,-19
14.52500,-19
14.53333,-19
14.54167,-19
14.55000,-19
14.55833,-18
14.56667,-18
14.57500,-18
14.58333,-18
14.59167,-18
14.60000,-17
14.60833,-17
14.61667,-17
14.62500,-17
14.63333,-17
14.64167,-17
14.65000,-17
14.65833,-17
14.66667,-17
14.67500,-17
14.68333,-17
14.69167,-17
14.70000,-17
14.70833,-17
14.71667,-17
14.72500,-16
14.73333,-16
14.74167,-17
14.75000,-17
14.75833,-17
14.76667,-17
14.77500,-17
14.78333,-17
14.79167,-17
14.80000,-16
14.80833,-16
14.81667,-16
14.82500,-16
14.83333,-16
14.84167,-17
14.85000,-17
14.85833,-17
14.86667,-17
14.87500,-17
14.88333,-17
14.89167,-16
14.90000,-16
14.90833,-16
14.91667,-16
14.92500,-15
14.93333,-15
14.94167,-14
14.95000,-14
14.95833,-14
14.96667,-13
14.97500,-13
14.98333,-12
14.99167,-11
15.00000,-10
15.00833,-9
15.01667,-8
15.02500,-6
15.03333,-5
15.04167,-3
15.05000,-1
15.05833,2
15.06667,5
15.07500,8
15.08333,12
15.09167,17
15.10000,23
15.10833,30
15.11667,39
15.12500,49
15.13333,60
15.14167,74
15.15000,91
15.15833,111
15.16667,134
15.17500,161
15.18333,193
15.19167,231
15.20000,275
15.20833,327
15.21667,388
15.22500,458
15.23333,540
15.24167,633
15.25000,741
15.25833,863
15.26667,1003
15.27500,1161
15.28333,1340
15.29167,1541
15.30000,1765
15.30833,2015
15.31667,2291
15.32500,2595
15.33333,2928
15.34167,3292
15.35000,3686
15.35833,4111
15.36667,4568
15.37500,5056
15.38333,5575
15.39167,6122
15.40000,6697
15.40833,7298
15.41667,7922
15.42500,8568
15.43333,9230
15.44167,9907
15.45000,10593
15.45833,11285
15.46667,11978
15.47500,12667
15.48333,13348
15.49167,14015
15.50000,14664
15.50833,15290
15.51667,15887
15.52500,16452
15.53333,16979
15.54167,17465
15.55000,17906
15.55833,18299
15.56667,18641
15.57500,18930
15.58333,19164
15.59167,19341
15.60000,19462
15.60833,19525
15.61667,19532
15.62500,19483
15.63333,19379
15.64167,19221
15.65000,19013
15.65833,18757
15.66667,18455
15.67500,18111
15.68333,17728
15.69167,17310
15.70000,16860
15.70833,16383
15.71667,15881
15.72500,15360
15.73333,14822
15.74167,14271
15.75000,13711
15.75833,13144
15.76667,12575
15.77500,12007
15.78333,11441
15.79167,10881
15.80000,10329
15.80833,9788
15.81667,9258
15.82500,8742
15.83333,8242
15.84167,7757
15.85000,7289
15.85833,6839
15.86667,6407
15.87500,5994
15.88333,5600
15.89167,5226
15.90000,4871
15.90833,4534
15.91667,4216
15.92500,3916
15.93333,3634
15.94167,3370
15.95000,3122
15.95833,2890
15.96667,2673
15.97500,2471
15.98333,2283
15.99167,2108
16.00000,1946
16.00833,1796
16.01667,1657
16.02500,1528
16.03333,1410
16.04167,1300
16.05000,1200
16.05833,1107
16.06667,1022
16.07500,943
16.08333,871
16.09167,805
16.10000,745
16.10833,689
16.11667,639
16.12500,592
16.13333,550
16.14167,510
16.15000,474
16.15833,442
16.16667,412
16.17500,384
16.18333,360
16.19167,337
16.20000,316
16.20833,296
16.21667,278
16.22500,262
16.23333,248
16.24167,234
16.25000,222
16.25833,210
16.26667,199
16.27500,190
16.28333,181
16.29167,173
16.30000,165
16.30833,158
16.31667,151
16.32500,145
16.33333,139
16.34167,134
16.35000,129
16.35833,125
16.36667,120
16.37500,117
16.38333,113
16.39167,110
16.40000,107
16.40833,104
16.41667,101
16.42500,98
16.43333,96
16.44167,93
16.45000,91
16.45833,88
16.46667,86
16.47500,84
16.48333,82
16.49167,80
16.50000,79
16.50833,77
16.51667,76
16.52500,75
16.53333,74
16.54167,72
16.55000,72
16.55833,71
16.56667,69
16.57500,68
16.58333,67
16.59167,66
16.60000,65
16.60833,64
16.61667,63
16.62500,63
16.63333,62
16.64167,61
16.65000,60
16.65833,60
16.66667,59
16.67500,58
16.68333,57
16.69167,56
16.70000,56
16.70833,55
16.71667,54
16.72500,54
16.73333,53
16.74167,53
16.75000,52
16.75833,52
16.76667,51
16.77500,50
16.78333,49
16.79167,49
16.80000,49
16.80833,48
16.81667,47
16.82500,47
16.83333,46
16.84167,46
16.85000,46
16.85833,45
16.86667,45
16.87500,44
16.88333,43
16.89167,42
16.90000,41
16.90833,41
16.91667,40
16.92500,39
16.93333,39
16.94167,39
16.95000,39
16.95833,38
16.96667,38
16.97500,38
16.98333,37
16.99167,37
17.00000,37
17.00833,36
17.01667,36
17.02500,35
17.03333,35
17.04167,34
17.05000,33
17.05833,33
17.06667,32
17.07500,32
17.08333,31
17.09167,31
17.10000,30
17.10833,30
17.11667,30
17.12500,30
17.13333,30
17.14167,29
17.15000,29
17.15833,29
17.16667,28
17.17500,28
17.18333,27
17.19167,27
17.20000,27
17.20833,27
17.21667,26
17.22500,26
17.23333,25
17.24167,25
17.25000,24
17.25833,24
17.26667,24
17.27500,23
17.28333,23
17.29167,22
17.30000,22
17.30833,22
17.31667,22
17.32500,22
17.33333,21
17.34167,21
17.35000,21
17.35833,20
17.36667,20
17.37500,20
17.38333,20
17.39167,20
17.40000,20
17.40833,20
17.41667,20
17.42500,20
17.43333,20
17.44167,20
17.45000,20
17.45833,20
17.46667,19
17.47500,19
17.48333,18
17.49167,18
17.50000,18
17.50833,18
17.51667,18
17.52500,17
17.53333,17
17.54167,16
17.55000,16
17.55833,16
17.56667,16
17.57500,15
17.58333,15
17.59167,15
17.60000,16
17.60833,16
17.61667,15
17.62500,15
17.63333,15
17.64167,15
17.65000,14
17.65833,14
17.66667,14
17.67500,14
17.68333,13
17.69167,13
17.70000,13
17.70833,13
17.71667,13
17.72500,13
17.73333,13
17.74167,13
17.75000,13
17.75833,13
17.76667,13
17.77500,13
17.78333,13
17.79167,12
17.80000,12
17.80833,12
17.81667,12
17.82500,12
17.83333,12
17.84167,12
17.85000,12
17.85833,12
17.86667,11
17.87500,11
17.88333,11
17.89167,11
17.90000,11
17.90833,11
17.91667,11
17.92500,10
17.93333,10
17.94167,10
17.95000,10
17.95833,9
17.96667,9
17.97500,9
17.98333,9
17.99167,9
18.00000,9
18.00833,9
18.01667,9
18.02500,9
18.03333,8
18.04167,8
18.05000,8
18.05833,8
18.06667,9
18.07500,9
18.08333,9
18.09167,9
18.10000,8
18.10833,8
18.11667,8
18.12500,8
18.13333,8
18.14167,8
18.15000,8
18.15833,8
18.16667,7
18.17500,7
18.18333,7
18.19167,6
18.20000,6
18.20833,6
18.21667,6
18.22500,6
18.23333,6
18.24167,6
18.25000,6
18.25833,6
18.26667,5
18.27500,5
18.28333,5
18.29167,5
18.30000,5
18.30833,4
18.31667,4
18.32500,4
18.33333,4
18.34167,4
18.35000,4
18.35833,4
18.36667,4
18.37500,4
18.38333,4
18.39167,5
18.40000,4
18.40833,4
18.41667,4
18.42500,4
18.43333,4
18.44167,4
18.45000,4
18.45833,4
18.46667,3
18.47500,3
18.48333,3
18.49167,3
18.50000,3
18.50833,3
18.51667,2
18.52500,2
18.53333,2
18.54167,2
18.55000,2
18.55833,3
18.56667,2
18.57500,2
18.58333,2
18.59167,2
18.60000,3
18.60833,3
18.61667,3
18.62500,3
18.63333,3
18.64167,4
18.65000,3
18.65833,3
18.66667,3
18.67500,3
18.68333,4
18.69167,4
18.70000,4
18.70833,5
18.71667,5
18.72500,5
18.73333,5
18.74167,5
18.75000,6
18.75833,6
18.76667,6
18.77500,7
18.78333,7
18.79167,8
18.80000,8
18.80833,9
18.81667,9
18.82500,10
18.83333,10
18.84167,11
18.85000,11
18.85833,12
18.86667,12
18.87500,12
18.88333,13
18.89167,13
18.90000,13
18.90833,14
18.91667,14
18.92500,14
18.93333,13
18.94167,13
18.95000,13
18.95833,12
18.96667,12
18.97500,12
18.98333,12
18.99167,12
19.00000,11
19.00833,11
19.01667,11
19.02500,11
19.03333,11
19.04167,11
19.05000,11
19.05833,10
19.06667,10
19.07500,10
19.08333,9
19.09167,9
19.10000,8
19.10833,8
19.11667,7
19.12500,7
19.13333,6
19.14167,5
19.15000,5
19.15833,4
19.16667,4
19.17500,4
19.18333,3
19.19167,3
19.20000,3
19.20833,2
19.21667,2
19.22500,1
19.23333,1
19.24167,0
19.25000,0
19.25833,-0
19.26667,-0
19.27500,-0
19.28333,-0
19.29167,-0
19.30000,-1
19.30833,-1
19.31667,-1
19.32500,-1
19.33333,-1
19.34167,-2
19.35000,-2
19.35833,-2
19.36667,-3
19.37500,-3
19.38333,-3
19.39167,-3
19.40000,-3
19.40833,-3
19.41667,-3
19.42500,-3
19.43333,-4
19.44167,-4
19.45000,-4
19.45833,-4
19.46667,-4
19.47500,-5
19.48333,-5
19.49167,-5
19.50000,-5
19.50833,-5
19.51667,-5
19.52500,-5
19.53333,-5
19.54167,-5
19.55000,-5
19.55833,-5
19.56667,-5
19.57500,-5
19.58333,-5
19.59167,-5
19.60000,-5
19.60833,-5
19.61667,-5
19.62500,-5
19.63333,-5
19.64167,-5
19.65000,-5
19.65833,-5
19.66667,-5
19.67500,-5
19.68333,-5
19.69167,-5
19.70000,-5
19.70833,-5
19.71667,-5
19.72500,-6
19.73333,-6
19.74167,-6
19.75000,-6
19.75833,-6
19.76667,-6
19.77500,-6
19.78333,-6
19.79167,-6
19.80000,-6
19.80833,-6
19.81667,-7
19.82500,-7
19.83333,-6
19.84167,-6
19.85000,-6
19.85833,-6
19.86667,-5
19.87500,-5
19.88333,-5
19.89167,-5
19.90000,-5
19.90833,-5
19.91667,-5
19.92500,-6
19.93333,-6
19.94167,-6
19.95000,-7
19.95833,-7
19.96667,-7
19.97500,-8
19.98333,-8
19.99167,-8
20.00000,-8
20.00833,-8
20.01667,-8
20.02500,-8
20.03333,-8
20.04167,-8
20.05000,-8
20.05833,-8
20.06667,-8
20.07500,-8
20.08333,-8
20.09167,-7
20.10000,-7
20.10833,-7
20.11667,-7
20.12500,-7
20.13333,-7
20.14167,-7
20.15000,-8
20.15833,-8
20.16667,-8
20.17500,-8
20.18333,-8
20.19167,-7
20.20000,-7
20.20833,-7
20.21667,-7
20.22500,-7
20.23333,-7
20.24167,-7
20.25000,-7
20.25833,-7
20.26667,-7
20.27500,-7
20.28333,-7
20.29167,-7
20.30000,-7
20.30833,-7
20.31667,-7
20.32500,-7
20.33333,-7
20.34167,-7
20.35000,-8
20.35833,-8
20.36667,-8
20.37500,-8
20.38333,-8
20.39167,-8
20.40000,-8
20.40833,-8
20.41667,-8
20.42500,-8
20.43333,-8
20.44167,-9
20.45000,-9
20.45833,-9
20.46667,-8
20.47500,-8
20.48333,-8
20.49167,-8
20.50000,-8
20.50833,-8
20.51667,-8
20.52500,-8
20.53333,-9
20.54167,-9
20.55000,-9
20.55833,-9
20.56667,-9
20.57500,-9
20.58333,-9
20.59167,-9
20.60000,-9
20.60833,-9
20.61667,-9
20.62500,-9
20.63333,-9
20.64167,-8
20.65000,-8
20.65833,-8
20.66667,-8
20.67500,-8
20.68333,-8
20.69167,-8
20.70000,-8
20.70833,-8
20.71667,-8
20.72500,-9
20.73333,-9
20.74167,-9
20.75000,-9
20.75833,-9
20.76667,-9
20.77500,-9
20.78333,-9
20.79167,-9
20.80000,-9
20.80833,-10
20.81667,-9
20.82500,-9
20.83333,-9
20.84167,-9
20.85000,-9
20.85833,-9
20.86667,-9
20.87500,-9
20.88333,-9
20.89167,-9
20.90000,-9
20.90833,-9
20.91667,-8
20.92500,-8
20.93333,-8
20.94167,-8
20.95000,-9
20.95833,-9
20.96667,-9
20.97500,-9
20.98333,-9
20.99167,-9
21.00000,-9
21.00833,-9
21.01667,-9
21.02500,-9
21.03333,-9
21.04167,-9
21.05000,-9
21.05833,-9
21.06667,-9
21.07500,-9
21.08333,-9
21.09167,-9
21.10000,-9
21.10833,-10
21.11667,-10
21.12500,-10
21.13333,-10
21.14167,-10
21.15000,-9
21.15833,-9
21.16667,-9
21.17500,-10
21.18333,-9
21.19167,-9
21.20000,-9
21.20833,-9
21.21667,-9
21.22500,-9
21.23333,-9
21.24167,-9
21.25000,-9
21.25833,-9
21.26667,-9
21.27500,-9
21.28333,-9
21.29167,-8
21.30000,-8
21.30833,-8
21.31667,-8
21.32500,-8
21.33333,-8
21.34167,-8
21.35000,-7
21.35833,-7
21.36667,-6
21.37500,-6
21.38333,-5
21.39167,-5
21.40000,-4
21.40833,-4
21.41667,-3
21.42500,-2
21.43333,-1
21.44167,-0
21.45000,1
21.45833,3
21.46667,4
21.47500,6
21.48333,8
21.49167,11
21.50000,13
21.50833,16
21.51667,20
21.52500,24
21.53333,28
21.54167,34
21.55000,39
21.55833,45
21.56667,52
21.57500,60
21.58333,70
21.59167,80
21.60000,91
21.60833,104
21.61667,118
21.62500,134
21.63333,152
21.64167,172
21.65000,193
21.65833,218
21.66667,245
21.67500,275
21.68333,309
21.69167,346
21.70000,387
21.70833,432
21.71667,481
21.72500,534
21.73333,592
21.74167,655
21.75000,723
21.75833,796
21.76667,875
21.77500,960
21.78333,1050
21.79167,1146
21.80000,1247
21.80833,1355
21.81667,1468
21.82500,1587
21.83333,1712
21.84167,1842
21.85000,1977
21.85833,2116
21.86667,2259
21.87500,2407
21.88333,2557
21.89167,2711
21.90000,2866
21.90833,3022
21.91667,3178
21.92500,3335
21.93333,3490
21.94167,3643
21.95000,3793
21.95833,3939
21.96667,4081
21.97500,4217
21.98333,4347
21.99167,4470
22.00000,4585
22.00833,4691
22.01667,4788
22.02500,4876
22.03333,4953
22.04167,5018
22.05000,5073
22.05833,5116
22.06667,5148
22.07500,5167
22.08333,5175
22.09167,5171
22.10000,5155
22.10833,5128
22.11667,5089
22.12500,5040
22.13333,4980
22.14167,4910
22.15000,4831
22.15833,4743
22.16667,4647
22.17500,4543
22.18333,4432
22.19167,4315
22.20000,4193
22.20833,4066
22.21667,3936
22.22500,3802
22.23333,3666
22.24167,3528
22.25000,3390
22.25833,3251
22.26667,3112
22.27500,2973
22.28333,2836
22.29167,2701
22.30000,2568
22.30833,2437
22.31667,2310
22.32500,2187
22.33333,2066
22.34167,1949
22.35000,1836
22.35833,1728
22.36667,1623
22.37500,1523
22.38333,1427
22.39167,1335
22.40000,1248
22.40833,1165
22.41667,1087
22.42500,1013
22.43333,943
22.44167,876
22.45000,814
22.45833,756
22.46667,701
22.47500,650
22.48333,602
22.49167,557
22.50000,516
22.50833,477
22.51667,442
22.52500,408
22.53333,377
22.54167,349
22.55000,322
22.55833,298
22.56667,275
22.57500,253
22.58333,234
22.59167,216
22.60000,200
22.60833,185
22.61667,172
22.62500,159
22.63333,148
22.64167,137
22.65000,128
22.65833,119
22.66667,110
22.67500,102
22.68333,95
22.69167,89
22.70000,83
22.70833,77
22.71667,72
22.72500,68
22.73333,64
22.74167,60
22.75000,57
22.75833,54
22.76667,51
22.77500,48
22.78333,45
22.79167,43
22.80000,41
22.80833,39
22.81667,37
22.82500,35
22.83333,33
22.84167,32
22.85000,31
22.85833,30
22.86667,28
22.87500,27
22.88333,26
22.89167,25
22.90000,24
22.90833,23
22.91667,23
22.92500,22
22.93333,21
22.94167,20
22.95000,20
22.95833,19
22.96667,18
22.97500,18
22.98333,17
22.99167,16
23.00000,16
23.00833,15
23.01667,14
23.02500,14
23.03333,14
23.04167,13
23.05000,13
23.05833,12
23.06667,12
23.07500,11
23.08333,11
23.09167,11
23.10000,11
23.10833,11
23.11667,10
23.12500,10
23.13333,10
23.14167,10
23.15000,9
23.15833,9
23.16667,9
23.17500,8
23.18333,9
23.19167,9
23.20000,8
23.20833,8
23.21667,8
23.22500,8
23.23333,7
23.24167,7
23.25000,7
23.25833,7
23.26667,7
23.27500,6
23.28333,6
23.29167,6
23.30000,5
23.30833,5
23.31667,5
23.32500,5
23.33333,5
23.34167,5
23.35000,4
23.35833,4
23.36667,4
23.37500,4
23.38333,4
23.39167,3
23.40000,3
23.40833,3
23.41667,3
23.42500,3
23.43333,3
23.44167,3
23.45000,3
23.45833,3
23.46667,2
23.47500,2
23.48333,2
23.49167,2
23.50000,2
23.50833,2
23.51667,2
23.52500,1
23.53333,1
23.54167,0
23.55000,0
23.55833,0
23.56667,0
23.57500,0
23.58333,0
23.59167,0
23.60000,1
23.60833,1
23.61667,1
23.62500,0
23.63333,0
23.64167,0
23.65000,0
23.65833,-0
23.66667,-1
23.67500,-1
23.68333,-1
23.69167,-1
23.70000,-1
23.70833,-1
23.71667,-1
23.72500,-1
23.73333,-1
23.74167,-2
23.75000,-2
23.75833,-2
23.76667,-2
23.77500,-2
23.78333,-2
23.79167,-2
23.80000,-2
23.80833,-3
23.81667,-3
23.82500,-4
23.83333,-4
23.84167,-4
23.85000,-3
23.85833,-3
23.86667,-2
23.87500,-2
23.88333,-2
23.89167,-3
23.90000,-3
23.90833,-4
23.91667,-4
23.92500,-4
23.93333,-4
23.94167,-4
23.95000,-4
23.95833,-4
23.96667,-3
23.97500,-4
23.98333,-4
23.99167,-4
24.00000,-4
24.00833,-4
24.01667,-4
24.02500,-4
24.03333,-3
24.04167,-3
24.05000,-4
24.05833,-4
24.06667,-3
24.07500,-4
24.08333,-4
24.09167,-4
24.10000,-5
24.10833,-5
24.11667,-5
24.12500,-5
24.13333,-5
24.14167,-5
24.15000,-5
24.15833,-5
24.16667,-5
24.17500,-5
24.18333,-5
24.19167,-5
24.20000,-5
24.20833,-4
24.21667,-4
24.22500,-4
24.23333,-4
24.24167,-4
24.25000,-4
24.25833,-4
24.26667,-3
24.27500,-3
24.28333,-3
24.29167,-3
24.30000,-2
24.30833,-2
24.31667,-2
24.32500,-2
24.33333,-2
24.34167,-1
24.35000,-1
24.35833,-0
24.36667,0
24.37500,1
24.38333,2
24.39167,3
24.40000,4
24.40833,6
24.41667,7
24.42500,9
24.43333,11
24.44167,13
24.45000,16
24.45833,18
24.46667,21
24.47500,24
24.48333,28
24.49167,32
24.50000,36
24.50833,40
24.51667,46
24.52500,52
24.53333,59
24.54167,67
24.55000,75
24.55833,84
24.56667,94
24.57500,104
24.58333,116
24.59167,128
24.60000,142
24.60833,156
24.61667,172
24.62500,190
24.63333,209
24.64167,229
24.65000,251
24.65833,275
24.66667,300
24.67500,327
24.68333,355
24.69167,386
24.70000,418
24.70833,452
24.71667,488
24.72500,526
24.73333,565
24.74167,606
24.75000,649
24.75833,694
24.76667,740
24.77500,788
24.78333,838
24.79167,889
24.80000,941
24.80833,993
24.81667,1047
24.82500,1101
24.83333,1156
24.84167,1211
24.85000,1266
24.85833,1321
24.86667,1375
24.87500,1428
24.88333,1481
24.89167,1532
24.90000,1582
24.90833,1631
24.91667,1677
24.92500,1721
24.93333,1763
24.94167,1802
24.95000,1838
24.95833,1871
24.96667,1901
24.97500,1927
24.98333,1950
24.99167,1969
25.00000,1984
25.00833,1996
25.01667,2004
25.02500,2009
25.03333,2009
25.04167,2005
25.05000,1997
25.05833,1986
25.06667,1971
25.07500,1953
25.08333,1931
25.09167,1906
25.10000,1878
25.10833,1846
25.11667,1812
25.12500,1776
25.13333,1737
25.14167,1696
25.15000,1653
25.15833,1608
25.16667,1562
25.17500,1514
25.18333,1465
25.19167,1415
25.20000,1365
25.20833,1315
25.21667,1264
25.22500,1214
25.23333,1163
25.24167,1113
25.25000,1063
25.25833,1014
25.26667,966
25.27500,919
25.28333,873
25.29167,828
25.30000,784
25.30833,742
25.31667,700
25.32500,660
25.33333,621
25.34167,584
25.35000,549
25.35833,515
25.36667,482
25.37500,451
25.38333,421
25.39167,393
25.40000,367
25.40833,342
25.41667,318
25.42500,295
25.43333,274
25.44167,254
25.45000,235
25.45833,218
25.46667,202
25.47500,187
25.48333,172
25.49167,159
25.50000,147
25.50833,135
25.51667,125
25.52500,116
25.53333,106
25.54167,98
25.55000,90
25.55833,83
25.56667,76
25.57500,70
25.58333,64
25.59167,59
25.60000,54
25.60833,49
25.61667,45
25.62500,41
25.63333,38
25.64167,34
25.65000,32
25.65833,29
25.66667,26
25.67500,24
25.68333,22
25.69167,21
25.70000,19
25.70833,17
25.71667,16
25.72500,14
25.73333,13
25.74167,11
25.75000,10
25.75833,9
25.76667,9
25.77500,8
25.78333,7
25.79167,6
25.80000,6
25.80833,5
25.81667,5
25.82500,4
25.83333,4
25.84167,3
25.85000,3
25.85833,2
25.86667,2
25.87500,1
25.88333,1
25.89167,0
25.90000,-0
25.90833,-1
25.91667,-1
25.92500,-1
25.93333,-1
25.94167,-1
25.95000,-1
25.95833,-1
25.96667,-1
25.97500,-1
25.98333,-1
25.99167,-1
26.00000,-1
26.00833,-2
26.01667,-2
26.02500,-2
26.03333,-3
26.04167,-3
26.05000,-3
26.05833,-3
26.06667,-3
26.07500,-3
26.08333,-4
26.09167,-4
26.10000,-4
26.10833,-4
26.11667,-4
26.12500,-4
26.13333,-4
26.14167,-5
26.15000,-5
26.15833,-5
26.16667,-5
26.17500,-5
26.18333,-5
26.19167,-5
26.20000,-6
26.20833,-6
26.21667,-6
26.22500,-6
26.23333,-6
26.24167,-6
26.25000,-6
26.25833,-6
26.26667,-6
26.27500,-7
26.28333,-7
26.29167,-7
26.30000,-7
26.30833,-8
26.31667,-8
26.32500,-7
26.33333,-7
26.34167,-8
26.35000,-8
26.35833,-8
26.36667,-8
26.37500,-8
26.38333,-8
26.39167,-8
26.40000,-8
26.40833,-9
26.41667,-9
26.42500,-10
26.43333,-10
26.44167,-10
26.45000,-10
26.45833,-10
26.46667,-10
26.47500,-10
26.48333,-10
26.49167,-10
26.50000,-10
26.50833,-9
26.51667,-10
26.52500,-10
26.53333,-10
26.54167,-10
26.55000,-10
26.55833,-10
26.56667,-10
26.57500,-10
26.58333,-10
26.59167,-10
26.60000,-11
26.60833,-11
26.61667,-11
26.62500,-11
26.63333,-11
26.64167,-11
26.65000,-11
26.65833,-11
26.66667,-11
26.67500,-11
26.68333,-10
26.69167,-10
26.70000,-10
26.70833,-10
26.71667,-10
26.72500,-11
26.73333,-11
26.74167,-11
26.75000,-11
26.75833,-11
26.76667,-11
26.77500,-11
26.78333,-11
26.79167,-11
26.80000,-10
26.80833,-10
26.81667,-10
26.82500,-10
26.83333,-10
26.84167,-10
26.85000,-10
26.85833,-10
26.86667,-11
26.87500,-11
26.88333,-11
26.89167,-11
26.90000,-11
26.90833,-11
26.91667,-11
26.92500,-11
26.93333,-12
26.94167,-12
26.95000,-11
26.95833,-11
26.96667,-12
26.97500,-12
26.98333,-11
26.99167,-12
27.00000,-12
27.00833,-12
27.01667,-13
27.02500,-13
27.03333,-12
27.04167,-12
27.05000,-13
27.05833,-13
27.06667,-13
27.07500,-13
27.08333,-12
27.09167,-13
27.10000,-13
27.10833,-13
27.11667,-13
27.12500,-13
27.13333,-13
27.14167,-13
27.15000,-13
27.15833,-13
27.16667,-13
27.17500,-13
27.18333,-13
27.19167,-13
27.20000,-13
27.20833,-13
27.21667,-13
27.22500,-13
27.23333,-13
27.24167,-14
27.25000,-14
27.25833,-14
27.26667,-14
27.27500,-14
27.28333,-14
27.29167,-14
27.30000,-14
27.30833,-14
27.31667,-14
27.32500,-14
27.33333,-15
27.34167,-15
27.35000,-15
27.35833,-14
27.36667,-14
27.37500,-14
27.38333,-14
27.39167,-14
27.40000,-14
27.40833,-14
27.41667,-14
27.42500,-14
27.43333,-14
27.44167,-14
27.45000,-14
27.45833,-14
27.46667,-14
27.47500,-14
27.48333,-14
27.49167,-15
27.50000,-15
27.50833,-15
27.51667,-15
27.52500,-15
27.53333,-15
27.54167,-15
27.55000,-15
27.55833,-14
27.56667,-14
27.57500,-14
27.58333,-14
27.59167,-14
27.60000,-14
27.60833,-15
27.61667,-15
27.62500,-15
27.63333,-15
27.64167,-15
27.65000,-15
27.65833,-15
27.66667,-15
27.67500,-15
27.68333,-15
27.69167,-15
27.70000,-15
27.70833,-15
27.71667,-15
27.72500,-16
27.73333,-16
27.74167,-16
27.75000,-16
27.75833,-15
27.76667,-16
27.77500,-16
27.78333,-16
27.79167,-16
27.80000,-17
27.80833,-17
27.81667,-18
27.82500,-18
27.83333,-18
27.84167,-19
27.85000,-19
27.85833,-19
27.86667,-20
27.87500,-21
27.88333,-21
27.89167,-21
27.90000,-22
27.90833,-22
27.91667,-22
27.92500,-22
27.93333,-22
27.94167,-23
27.95000,-23
27.95833,-24
27.96667,-25
27.97500,-26
27.98333,-27
27.99167,-28
28.00000,-29
28.00833,-30
28.01667,-32
28.02500,-33
28.03333,-35
28.04167,-36
28.05000,-38
28.05833,-39
28.06667,-40
28.07500,-42
28.08333,-44
28.09167,-47
28.10000,-49
28.10833,-51
28.11667,-53
28.12500,-55
28.13333,-58
28.14167,-60
28.15000,-62
28.15833,-65
28.16667,-67
28.17500,-70
28.18333,-73
28.19167,-76
28.20000,-80
28.20833,-83
28.21667,-86
28.22500,-90
28.23333,-93
28.24167,-97
28.25000,-100
28.25833,-103
28.26667,-107
28.27500,-110
28.28333,-114
28.29167,-117
28.30000,-120
28.30833,-124
28.31667,-127
28.32500,-131
28.33333,-135
28.34167,-138
28.35000,-142
28.35833,-145
28.36667,-148
28.37500,-151
28.38333,-154
28.39167,-156
28.40000,-159
28.40833,-161
28.41667,-164
28.42500,-166
28.43333,-168
28.44167,-171
28.45000,-173
28.45833,-175
28.46667,-177
28.47500,-179
28.48333,-180
28.49167,-181
28.50000,-181
28.50833,-181
28.51667,-182
28.52500,-182
28.53333,-182
28.54167,-182
28.55000,-182
28.55833,-182
28.56667,-181
28.57500,-180
28.58333,-179
28.59167,-178
28.60000,-177
28.60833,-175
28.61667,-174
28.62500,-172
28.63333,-170
28.64167,-167
28.65000,-165
28.65833,-163
28.66667,-161
28.67500,-159
28.68333,-156
28.69167,-154
28.70000,-152
28.70833,-149
28.71667,-146
28.72500,-143
28.73333,-140
28.74167,-137
28.75000,-134
28.75833,-131
28.76667,-128
28.77500,-124
28.78333,-121
28.79167,-118
28.80000,-115
28.80833,-112
28.81667,-110
28.82500,-107
28.83333,-104
28.84167,-101
28.85000,-99
28.85833,-96
28.86667,-93
28.87500,-90
28.88333,-87
28.89167,-84
28.90000,-82
28.90833,-80
28.91667,-78
28.92500,-76
28.93333,-74
28.94167,-72
28.95000,-70
28.95833,-68
28.96667,-66
28.97500,-64
28.98333,-62
28.99167,-60
29.00000,-59
29.00833,-57
29.01667,-56
29.02500,-54
29.03333,-52
29.04167,-51
29.05000,-49
29.05833,-48
29.06667,-47
29.07500,-46
29.08333,-45
29.09167,-43
29.10000,-43
29.10833,-42
29.11667,-41
29.12500,-40
29.13333,-40
29.14167,-39
29.15000,-38
29.15833,-38
29.16667,-37
29.17500,-37
29.18333,-36
29.19167,-35
29.20000,-35
29.20833,-34
29.21667,-34
29.22500,-33
29.23333,-32
29.24167,-32
29.25000,-31
29.25833,-31
29.26667,-31
29.27500,-30
29.28333,-30
29.29167,-30
29.30000,-30
29.30833,-29
29.31667,-29
29.32500,-29
29.33333,-29
29.34167,-29
29.35000,-29
29.35833,-29
29.36667,-29
29.37500,-28
29.38333,-29
29.39167,-28
29.40000,-28
29.40833,-28
29.41667,-28
29.42500,-28
29.43333,-28
29.44167,-28
29.45000,-28
29.45833,-28
29.46667,-28
29.47500,-28
29.48333,-28
29.49167,-28
29.50000,-28
29.50833,-28
29.51667,-28
29.52500,-28
29.53333,-28
29.54167,-28
29.55000,-29
29.55833,-29
29.56667,-29
29.57500,-29
29.58333,-29
29.59167,-29
29.60000,-29
29.60833,-29
29.61667,-30
29.62500,-30
29.63333,-31
29.64167,-31
29.65000,-31
29.65833,-31
29.66667,-32
29.67500,-32
29.68333,-33
29.69167,-33
29.70000,-33
29.70833,-34
29.71667,-34
29.72500,-35
29.73333,-35
29.74167,-36
29.75000,-36
29.75833,-37
29.76667,-37
29.77500,-38
29.78333,-38
29.79167,-38
29.80000,-39
29.80833,-39
29.81667,-40
29.82500,-41
29.83333,-42
29.84167,-43
29.85000,-43
29.85833,-44
29.86667,-45
29.87500,-46
29.88333,-47
29.89167,-48
29.90000,-48
29.90833,-49
29.91667,-50
29.92500,-51
29.93333,-52
29.94167,-53
29.95000,-54
29.95833,-55
29.96667,-56
29.97500,-57
29.98333,-59
29.99167,-60
30.00000,-61
30.00833,-62
30.01667,-64
30.02500,-65
30.03333,-66
30.04167,-67
30.05000,-68
30.05833,-69
30.06667,-70
30.07500,-71
30.08333,-72
30.09167,-73
30.10000,-74
30.10833,-75
30.11667,-76
30.12500,-77
30.13333,-78
30.14167,-80
30.15000,-80
30.15833,-81
30.16667,-82
30.17500,-83
30.18333,-83
30.19167,-84
30.20000,-85
30.20833,-85
30.21667,-86
30.22500,-86
30.23333,-86
30.24167,-86
30.25000,-87
30.25833,-87
30.26667,-87
30.27500,-87
30.28333,-87
30.29167,-87
30.30000,-87
30.30833,-87
30.31667,-87
30.32500,-86
30.33333,-86
30.34167,-86
30.35000,-86
30.35833,-85
30.36667,-84
30.37500,-84
30.38333,-83
30.39167,-83
30.40000,-82
30.40833,-81
30.41667,-81
30.42500,-80
30.43333,-79
30.44167,-78
30.45000,-77
30.45833,-76
30.46667,-75
30.47500,-74
30.48333,-73
30.49167,-72
30.50000,-71
30.50833,-70
30.51667,-69
30.52500,-68
30.53333,-67
30.54167,-66
30.55000,-65
30.55833,-63
30.56667,-62
30.57500,-60
30.58333,-59
30.59167,-58
30.60000,-57
30.60833,-57
30.61667,-56
30.62500,-55
30.63333,-54
30.64167,-53
30.65000,-52
30.65833,-51
30.66667,-50
30.67500,-49
30.68333,-48
30.69167,-47
30.70000,-46
30.70833,-46
30.71667,-45
30.72500,-44
30.73333,-43
30.74167,-42
30.75000,-42
30.75833,-41
30.76667,-40
30.77500,-39
30.78333,-39
30.79167,-38
30.80000,-38
30.80833,-37
30.81667,-37
30.82500,-37
30.83333,-36
30.84167,-36
30.85000,-35
30.85833,-35
30.86667,-34
30.87500,-34
30.88333,-34
30.89167,-33
30.90000,-33
30.90833,-32
30.91667,-32
30.92500,-31
30.93333,-31
30.94167,-31
30.95000,-30
30.95833,-30
30.96667,-29
30.97500,-29
30.98333,-29
30.99167,-29
31.00000,-29
31.00833,-30
31.01667,-30
31.02500,-29
31.03333,-29
31.04167,-29
31.05000,-28
31.05833,-28
31.06667,-28
31.07500,-28
31.08333,-28
31.09167,-28
31.10000,-28
31.10833,-28
31.11667,-28
31.12500,-28
31.13333,-28
31.14167,-28
31.15000,-28
31.15833,-28
31.16667,-27
31.17500,-27
31.18333,-26
31.19167,-26
31.20000,-26
31.20833,-26
31.21667,-26
31.22500,-27
31.23333,-27
31.24167,-27
31.25000,-27
31.25833,-27
31.26667,-27
31.27500,-27
31.28333,-27
31.29167,-27
31.30000,-26
31.30833,-26
31.31667,-25
31.32500,-25
31.33333,-25
31.34167,-25
31.35000,-25
31.35833,-24
31.36667,-24
31.37500,-24
31.38333,-24
31.39167,-25
31.40000,-25
31.40833,-25
31.41667,-25
31.42500,-25
31.43333,-25
31.44167,-25
31.45000,-25
31.45833,-25
31.46667,-25
31.47500,-24
31.48333,-24
31.49167,-24
31.50000,-24
31.50833,-24
31.51667,-24
31.52500,-24
31.53333,-24
31.54167,-24
31.55000,-24
31.55833,-23
31.56667,-23
31.57500,-24
31.58333,-24
31.59167,-23
31.60000,-24
31.60833,-24
31.61667,-24
31.62500,-24
31.63333,-24
31.64167,-24
31.65000,-24
31.65833,-24
31.66667,-24
31.67500,-24
31.68333,-24
31.69167,-24
31.70000,-24
31.70833,-24
31.71667,-24
31.72500,-24
31.73333,-24
31.74167,-23
31.75000,-23
31.75833,-23
31.76667,-22
31.77500,-22
31.78333,-22
31.79167,-23
31.80000,-23
31.80833,-23
31.81667,-23
31.82500,-23
31.83333,-24
31.84167,-24
31.85000,-23
31.85833,-23
31.86667,-23
31.87500,-23
31.88333,-23
31.89167,-23
31.90000,-23
31.90833,-23
31.91667,-22
31.92500,-22
31.93333,-22
31.94167,-22
31.95000,-22
31.95833,-22
31.96667,-23
31.97500,-23
31.98333,-23
31.99167,-23
32.00000,-23
32.00833,-23
32.01667,-23
32.02500,-23
32.03333,-22
32.04167,-22
32.05000,-22
32.05833,-22
32.06667,-22
32.07500,-22
32.08333,-23
32.09167,-23
32.10000,-23
32.10833,-23
32.11667,-23
32.12500,-23
32.13333,-23
32.14167,-23
32.15000,-22
32.15833,-22
32.16667,-22
32.17500,-22
32.18333,-22
32.19167,-22
32.20000,-22
32.20833,-22
32.21667,-23
32.22500,-23
32.23333,-23
32.24167,-23
32.25000,-23
32.25833,-22
32.26667,-22
32.27500,-22
32.28333,-22
32.29167,-22
32.30000,-22
32.30833,-22
32.31667,-22
32.32500,-22
32.33333,-22
32.34167,-22
32.35000,-23
32.35833,-23
32.36667,-23
32.37500,-23
32.38333,-23
32.39167,-23
32.40000,-22
32.40833,-22
32.41667,-22
32.42500,-22
32.43333,-22
32.44167,-22
32.45000,-22
32.45833,-23
32.46667,-23
32.47500,-23
32.48333,-22
32.49167,-23
32.50000,-23
32.50833,-23
32.51667,-23
32.52500,-23
32.53333,-23
32.54167,-23
32.55000,-23
32.55833,-23
32.56667,-24
32.57500,-24
32.58333,-24
32.59167,-24
32.60000,-24
32.60833,-23
32.61667,-23
32.62500,-23
32.63333,-22
32.64167,-22
32.65000,-22
32.65833,-22
32.66667,-22
32.67500,-23
32.68333,-23
32.69167,-23
32.70000,-23
32.70833,-23
32.71667,-23
32.72500,-23
32.73333,-23
32.74167,-23
32.75000,-23
32.75833,-23
32.76667,-23
32.77500,-23
32.78333,-23
32.79167,-22
32.80000,-22
32.80833,-22
32.81667,-23
32.82500,-23
32.83333,-23
32.84167,-22
32.85000,-22
32.85833,-22
32.86667,-22
32.87500,-22
32.88333,-23
32.89167,-23
32.90000,-23
32.90833,-23
32.91667,-24
32.92500,-23
32.93333,-23
32.94167,-23
32.95000,-23
32.95833,-23
32.96667,-22
32.97500,-22
32.98333,-22
32.99167,-22
33.00000,-22
33.00833,-22
33.01667,-22
33.02500,-22
33.03333,-22
33.04167,-22
33.05000,-22
33.05833,-22
33.06667,-22
33.07500,-22
33.08333,-22
33.09167,-22
33.10000,-22
33.10833,-23
33.11667,-23
33.12500,-23
33.13333,-23
33.14167,-23
33.15000,-22
33.15833,-22
33.16667,-21
33.17500,-22
33.18333,-22
33.19167,-22
33.20000,-23
33.20833,-23
33.21667,-23
33.22500,-23
33.23333,-23
33.24167,-23
33.25000,-23
33.25833,-22
33.26667,-22
33.27500,-22
33.28333,-22
33.29167,-22
33.30000,-22
33.30833,-22
33.31667,-22
33.32500,-21
33.33333,-21
33.34167,-21
33.35000,-21
33.35833,-21
33.36667,-21
33.37500,-21
33.38333,-21
33.39167,-21
33.40000,-21
33.40833,-21
33.41667,-21
33.42500,-21
33.43333,-21
33.44167,-21
33.45000,-22
33.45833,-22
33.46667,-22
33.47500,-23
33.48333,-23
33.49167,-23
33.50000,-23
33.50833,-23
33.51667,-23
33.52500,-22
33.53333,-22
33.54167,-22
33.55000,-22
33.55833,-22
33.56667,-22
33.57500,-22
33.58333,-22
33.59167,-22
33.60000,-22
33.60833,-22
33.61667,-22
33.62500,-22
33.63333,-22
33.64167,-21
33.65000,-21
33.65833,-21
33.66667,-22
33.67500,-22
33.68333,-22
33.69167,-22
33.70000,-21
33.70833,-21
33.71667,-21
33.72500,-21
33.73333,-21
33.74167,-21
33.75000,-22
33.75833,-22
33.76667,-22
33.77500,-22
33.78333,-22
33.79167,-22
33.80000,-22
33.80833,-22
33.81667,-22
33.82500,-22
33.83333,-22
33.84167,-21
33.85000,-21
33.85833,-21
33.86667,-21
33.87500,-21
33.88333,-21
33.89167,-21
33.90000,-21
33.90833,-21
33.91667,-21
33.92500,-22
33.93333,-22
33.94167,-22
33.95000,-22
33.95833,-22
33.96667,-22
33.97500,-22
33.98333,-22
33.99167,-22
34.00000,-22
34.00833,-22
34.01667,-22
34.02500,-22
34.03333,-22
34.04167,-21
34.05000,-21
34.05833,-22
34.06667,-22
34.07500,-22
34.08333,-22
34.09167,-22
34.10000,-22
34.10833,-21
34.11667,-21
34.12500,-21
34.13333,-21
34.14167,-21
34.15000,-21
34.15833,-20
34.16667,-20
34.17500,-20
34.18333,-20
34.19167,-20
34.20000,-21
34.20833,-21
34.21667,-21
34.22500,-21
34.23333,-21
34.24167,-21
34.25000,-21
34.25833,-21
34.26667,-21
34.27500,-21
34.28333,-21
34.29167,-21
34.30000,-21
34.30833,-21
34.31667,-21
34.32500,-21
34.33333,-21
34.34167,-21
34.35000,-21
34.35833,-21
34.36667,-21
34.37500,-22
34.38333,-22
34.39167,-22
34.40000,-22
34.40833,-22
34.41667,-22
34.42500,-22
34.43333,-21
34.44167,-21
34.45000,-21
34.45833,-21
34.46667,-22
34.47500,-22
34.48333,-22
34.49167,-22
34.50000,-22
34.50833,-22
34.51667,-22
34.52500,-22
34.53333,-22
34.54167,-22
34.55000,-22
34.55833,-21
34.56667,-21
34.57500,-22
34.58333,-22
34.59167,-22
34.60000,-22
34.60833,-22
34.61667,-22
34.62500,-22
34.63333,-22
34.64167,-22
34.65000,-22
34.65833,-22
34.66667,-22
34.67500,-22
34.68333,-22
34.69167,-22
34.70000,-22
34.70833,-22
34.71667,-22
34.72500,-22
34.73333,-22
34.74167,-22
34.75000,-23
34.75833,-22
34.76667,-22
34.77500,-22
34.78333,-21
34.79167,-21
34.80000,-21
34.80833,-21
34.81667,-21
34.82500,-21
34.83333,-22
34.84167,-22
34.85000,-22
34.85833,-22
34.86667,-22
34.87500,-22
34.88333,-22
34.89167,-22
34.90000,-22
34.90833,-22
34.91667,-22
34.92500,-22
34.93333,-22
34.94167,-22
34.95000,-22
34.95833,-22
34.96667,-22
34.97500,-22
34.98333,-22
34.99167,-22
35.00000,-22
35.00833,-23
35.01667,-23
35.02500,-23
35.03333,-23
35.04167,-23
35.05000,-23
35.05833,-23
35.06667,-22
35.07500,-22
35.08333,-22
35.09167,-23
35.10000,-23
35.10833,-24
35.11667,-23
35.12500,-23
35.13333,-23
35.14167,-23
35.15000,-23
35.15833,-23
35.16667,-23
35.17500,-23
35.18333,-23
35.19167,-23
35.20000,-24
35.20833,-24
35.21667,-23
35.22500,-23
35.23333,-23
35.24167,-23
35.25000,-23
35.25833,-23
35.26667,-23
35.27500,-23
35.28333,-23
35.29167,-23
35.30000,-23
35.30833,-23
35.31667,-23
35.32500,-22
35.33333,-23
35.34167,-23
35.35000,-23
35.35833,-22
35.36667,-22
35.37500,-22
35.38333,-22
35.39167,-22
35.40000,-22
35.40833,-23
35.41667,-23
35.42500,-23
35.43333,-23
35.44167,-23
35.45000,-23
35.45833,-23
35.46667,-23
35.47500,-23
35.48333,-23
35.49167,-23
35.50000,-23
35.50833,-23
35.51667,-23
35.52500,-23
35.53333,-23
35.54167,-23
35.55000,-23
35.55833,-23
35.56667,-23
35.57500,-23
35.58333,-23
35.59167,-23
35.60000,-23
35.60833,-23
35.61667,-23
35.62500,-23
35.63333,-23
35.64167,-23
35.65000,-23
35.65833,-23
35.66667,-23
35.67500,-23
35.68333,-23
35.69167,-23
35.70000,-23
35.70833,-23
35.71667,-22
35.72500,-23
35.73333,-23
35.74167,-23
35.75000,-23
35.75833,-23
35.76667,-23
35.77500,-23
35.78333,-23
35.79167,-23
35.80000,-23
35.80833,-23
35.81667,-23
35.82500,-23
35.83333,-23
35.84167,-22
35.85000,-22
35.85833,-23
35.86667,-23
35.87500,-23
35.88333,-23
35.89167,-23
35.90000,-23
35.90833,-23
35.91667,-23
35.92500,-23
35.93333,-23
35.94167,-23
35.95000,-23
35.95833,-23
35.96667,-23
35.97500,-23
35.98333,-23
35.99167,-24
36.00000,-23
36.00833,-23
36.01667,-23
36.02500,-23
36.03333,-23
36.04167,-23
36.05000,-24
36.05833,-24
36.06667,-24
36.07500,-24
36.08333,-24
36.09167,-24
36.10000,-24
36.10833,-24
36.11667,-24
36.12500,-24
36.13333,-24
36.14167,-24
36.15000,-24
36.15833,-24
36.16667,-23
36.17500,-23
36.18333,-23
36.19167,-23
36.20000,-24
36.20833,-23
36.21667,-24
36.22500,-24
36.23333,-24
36.24167,-24
36.25000,-24
36.25833,-25
36.26667,-25
36.27500,-25
36.28333,-25
36.29167,-24
36.30000,-24
36.30833,-24
36.31667,-25
36.32500,-25
36.33333,-25
36.34167,-25
36.35000,-25
36.35833,-25
36.36667,-25
36.37500,-25
36.38333,-26
36.39167,-26
36.40000,-25
36.40833,-25
36.41667,-25
36.42500,-25
36.43333,-26
36.44167,-26
36.45000,-26
36.45833,-26
36.46667,-26
36.47500,-25
36.48333,-25
36.49167,-25
36.50000,-25
36.50833,-25
36.51667,-25
36.52500,-25
36.53333,-25
36.54167,-25
36.55000,-25
36.55833,-24
36.56667,-24
36.57500,-24
36.58333,-24
36.59167,-25
36.60000,-25
36.60833,-25
36.61667,-25
36.62500,-25
36.63333,-25
36.64167,-25
36.65000,-24
36.65833,-24
36.66667,-25
36.67500,-25
36.68333,-25
36.69167,-25
36.70000,-25
36.70833,-25
36.71667,-25
36.72500,-25
36.73333,-24
36.74167,-24
36.75000,-24
36.75833,-24
36.76667,-24
36.77500,-24
36.78333,-24
36.79167,-24
36.80000,-24
36.80833,-24
36.81667,-24
36.82500,-24
36.83333,-24
36.84167,-24
36.85000,-24
36.85833,-24
36.86667,-25
36.87500,-25
36.88333,-25
36.89167,-24
36.90000,-24
36.90833,-24
36.91667,-24
36.92500,-24
36.93333,-24
36.94167,-24
36.95000,-24
36.95833,-24
36.96667,-24
36.97500,-24
36.98333,-23
36.99167,-23
37.00000,-24
37.00833,-24
37.01667,-24
37.02500,-23
37.03333,-23
37.04167,-23
37.05000,-23
37.05833,-24
37.06667,-24
37.07500,-24
37.08333,-24
37.09167,-24
37.10000,-24
37.10833,-24
37.11667,-23
37.12500,-23
37.13333,-24
37.14167,-24
37.15000,-24
37.15833,-24
37.16667,-24
37.17500,-24
37.18333,-24
37.19167,-23
37.20000,-23
37.20833,-23
37.21667,-24
37.22500,-24
37.23333,-24
37.24167,-24
37.25000,-24
37.25833,-24
37.26667,-24
37.27500,-24
37.28333,-24
37.29167,-24
37.30000,-24
37.30833,-23
37.31667,-23
37.32500,-23
37.33333,-23
37.34167,-23
37.35000,-23
37.35833,-23
37.36667,-23
37.37500,-23
37.38333,-23
37.39167,-23
37.40000,-23
37.40833,-24
37.41667,-24
37.42500,-24
37.43333,-24
37.44167,-24
37.45000,-25
37.45833,-25
37.46667,-24
37.47500,-24
37.48333,-24
37.49167,-24
37.50000,-25
37.50833,-25
37.51667,-25
37.52500,-25
37.53333,-24
37.54167,-24
37.55000,-23
37.55833,-23
37.56667,-23
37.57500,-24
37.58333,-24
37.59167,-24
37.60000,-24
37.60833,-24
37.61667,-24
37.62500,-24
37.63333,-24
37.64167,-24
37.65000,-24
37.65833,-24
37.66667,-24
37.67500,-24
37.68333,-24
37.69167,-24
37.70000,-24
37.70833,-24
37.71667,-24
37.72500,-24
37.73333,-24
37.74167,-24
37.75000,-24
37.75833,-24
37.76667,-24
37.77500,-24
37.78333,-23
37.79167,-23
37.80000,-23
37.80833,-23
37.81667,-23
37.82500,-23
37.83333,-23
37.84167,-23
37.85000,-24
37.85833,-24
37.86667,-24
37.87500,-24
37.88333,-24
37.89167,-24
37.90000,-24
37.90833,-24
37.91667,-24
37.92500,-24
37.93333,-24
37.94167,-24
37.95000,-24
37.95833,-24
37.96667,-24
37.97500,-24
37.98333,-25
37.99167,-25
38.00000,-25
38.00833,-25
38.01667,-24
38.02500,-24
38.03333,-24
38.04167,-24
38.05000,-24
38.05833,-24
38.06667,-24
38.07500,-24
38.08333,-24
38.09167,-24
38.10000,-24
38.10833,-24
38.11667,-24
38.12500,-24
38.13333,-23
38.14167,-23
38.15000,-23
38.15833,-23
38.16667,-23
38.17500,-23
38.18333,-23
38.19167,-23
38.20000,-23
38.20833,-24
38.21667,-24
38.22500,-24
38.23333,-23
38.24167,-23
38.25000,-23
38.25833,-23
38.26667,-23
38.27500,-23
38.28333,-23
38.29167,-23
38.30000,-23
38.30833,-23
38.31667,-23
38.32500,-23
38.33333,-23
38.34167,-23
38.35000,-23
38.35833,-23
38.36667,-23
38.37500,-23
38.38333,-23
38.39167,-23
38.40000,-23
38.40833,-23
38.41667,-23
38.42500,-23
38.43333,-23
38.44167,-23
38.45000,-23
38.45833,-23
38.46667,-23
38.47500,-22
38.48333,-22
38.49167,-22
38.50000,-23
38.50833,-23
38.51667,-23
38.52500,-22
38.53333,-22
38.54167,-22
38.55000,-22
38.55833,-22
38.56667,-23
38.57500,-23
38.58333,-23
38.59167,-23
38.60000,-23
38.60833,-23
38.61667,-22
38.62500,-22
38.63333,-22
38.64167,-22
38.65000,-22
38.65833,-22
38.66667,-22
38.67500,-22
38.68333,-22
38.69167,-22
38.70000,-22
38.70833,-22
38.71667,-23
38.72500,-23
38.73333,-23
38.74167,-23
38.75000,-23
38.75833,-23
38.76667,-23
38.77500,-23
38.78333,-23
38.79167,-23
38.80000,-23
38.80833,-23
38.81667,-23
38.82500,-22
38.83333,-22
38.84167,-23
38.85000,-23
38.85833,-23
38.86667,-23
38.87500,-23
38.88333,-23
38.89167,-23
38.90000,-23
38.90833,-23
38.91667,-24
38.92500,-24
38.93333,-24
38.94167,-24
38.95000,-24
38.95833,-24
38.96667,-23
38.97500,-23
38.98333,-23
38.99167,-23
39.00000,-23
39.00833,-23
39.01667,-23
39.02500,-23
39.03333,-24
39.04167,-24
39.05000,-24
39.05833,-24
39.06667,-24
39.07500,-25
39.08333,-25
39.09167,-25
39.10000,-25
39.10833,-25
39.11667,-25
39.12500,-24
39.13333,-24
39.14167,-25
39.15000,-25
39.15833,-25
39.16667,-25
39.17500,-24
39.18333,-24
39.19167,-24
39.20000,-24
39.20833,-24
39.21667,-24
39.22500,-24
39.23333,-25
39.24167,-25
39.25000,-25
39.25833,-25
39.26667,-25
39.27500,-25
39.28333,-25
39.29167,-25
39.30000,-25
39.30833,-25
39.31667,-25
39.32500,-25
39.33333,-25
39.34167,-25
39.35000,-25
39.35833,-25
39.36667,-25
39.37500,-25
39.38333,-25
39.39167,-25
39.40000,-25
39.40833,-25
39.41667,-25
39.42500,-25
39.43333,-25
39.44167,-25
39.45000,-25
39.45833,-25
39.46667,-25
39.47500,-25
39.48333,-25
39.49167,-25
39.50000,-25
39.50833,-25
39.51667,-25
39.52500,-24
39.53333,-24
39.54167,-24
39.55000,-25
39.55833,-25
39.56667,-25
39.57500,-25
39.58333,-25
39.59167,-25
39.60000,-25
39.60833,-25
39.61667,-25
39.62500,-25
39.63333,-25
39.64167,-25
39.65000,-25
39.65833,-25
39.66667,-25
39.67500,-25
39.68333,-25
39.69167,-24
39.70000,-24
39.70833,-24
39.71667,-24
39.72500,-25
39.73333,-25
39.74167,-25
39.75000,-25
39.75833,-25
39.76667,-25
39.77500,-25
39.78333,-25
39.79167,-25
39.80000,-25
39.80833,-25
39.81667,-25
39.82500,-25
39.83333,-25
39.84167,-25
39.85000,-25
39.85833,-25
39.86667,-25
39.87500,-25
39.88333,-25
39.89167,-25
39.90000,-25
39.90833,-25
39.91667,-26
39.92500,-26
39.93333,-26
39.94167,-26
39.95000,-26
39.95833,-26
39.96667,-26
39.97500,-25
39.98333,-25
39.99167,-25
40.00000,-25

[Fraction Collection Report]
# of Fractions,0
