[Header]
Application Name,LabSolutions
Version,5.97 SP1
Data File Name,C:\Users\cremerlab\Desktop\griffin\2021-03-26_calibration\2021-03-26_calibration_3262021_008_008.lcd
Output Date,3/26/2021
Output Time,11:07:01 PM

[File Information]
Type,Data File
Generated,3/26/2021 10:26:40 PM
Generated by,System Administrator
Modified,3/26/2021 11:07:01 PM
Modified by,System Administrator

[Sample Information]
Operator Name,System Administrator
Acquired,3/26/2021 10:27:00 PM
Sample Type,1:Standard
Level,8
Sample Name,2021-03-26_calibration_02mM
Sample ID,008
ISTD Amount1,1
ISTD Amount2,1
ISTD Amount3,1
ISTD Amount4,1
ISTD Amount5,1
ISTD Amount6,1
ISTD Amount7,1
ISTD Amount8,1
ISTD Amount9,1
ISTD Amount10,1
ISTD Amount11,1
ISTD Amount12,1
ISTD Amount13,1
ISTD Amount14,1
ISTD Amount15,1
ISTD Amount16,1
ISTD Amount17,1
ISTD Amount18,1
ISTD Amount19,1
ISTD Amount20,1
ISTD Amount21,1
ISTD Amount22,1
ISTD Amount23,1
ISTD Amount24,1
ISTD Amount25,1
ISTD Amount26,1
ISTD Amount27,1
ISTD Amount28,1
ISTD Amount29,1
ISTD Amount30,1
ISTD Amount31,1
ISTD Amount32,1
Sample Amount,1
Dilution Factor,1
Vial#,8
Injection Volume,20

[Original Files]
Data File,C:\Users\cremerlab\Desktop\griffin\2021-03-26_calibration\2021-03-26_calibration_3262021_008_008.lcd
Method File,C:\LabSolutions\Data\Project1\organicacidsetc2.lcm
Batch File,C:\Users\cremerlab\Desktop\griffin\2021-03-26_calibration\2021-03-26_calibration.lcb
Report Format File,c:\LabSolutions\System\DEFAULT.lsr

[File Description]


[Configuration]
Instrument Name,HPLC-PC-Instrument1
Instrument #,1
Line #,1
# of Detectors,2
Detector ID,Detector A,Detector B
Detector Name,Detector A,Detector B
# of Channels,1,1

[LC Chromatogram(Detector B-Ch1)]
Interval(msec),500
# of Points,4801
Start Time(min),0.000
End Time(min),40.000
Intensity Units,mV
Intensity Multiplier,0.001
R.Time (min),Intensity
0.00000,-1
0.00833,-1
0.01667,0
0.02500,0
0.03333,0
0.04167,0
0.05000,0
0.05833,0
0.06667,0
0.07500,1
0.08333,1
0.09167,1
0.10000,1
0.10833,1
0.11667,1
0.12500,1
0.13333,0
0.14167,0
0.15000,0
0.15833,0
0.16667,-0
0.17500,-0
0.18333,-0
0.19167,-0
0.20000,-0
0.20833,0
0.21667,0
0.22500,0
0.23333,0
0.24167,0
0.25000,0
0.25833,0
0.26667,1
0.27500,1
0.28333,1
0.29167,1
0.30000,1
0.30833,1
0.31667,2
0.32500,2
0.33333,1
0.34167,1
0.35000,1
0.35833,1
0.36667,1
0.37500,1
0.38333,0
0.39167,-0
0.40000,-0
0.40833,-0
0.41667,-0
0.42500,0
0.43333,0
0.44167,0
0.45000,0
0.45833,1
0.46667,1
0.47500,0
0.48333,1
0.49167,1
0.50000,1
0.50833,1
0.51667,1
0.52500,1
0.53333,1
0.54167,1
0.55000,2
0.55833,2
0.56667,2
0.57500,2
0.58333,2
0.59167,1
0.60000,1
0.60833,1
0.61667,1
0.62500,1
0.63333,0
0.64167,-0
0.65000,-1
0.65833,-1
0.66667,-1
0.67500,-1
0.68333,-1
0.69167,-1
0.70000,-1
0.70833,-1
0.71667,-2
0.72500,-1
0.73333,-1
0.74167,-1
0.75000,-1
0.75833,-1
0.76667,-1
0.77500,-1
0.78333,-1
0.79167,-0
0.80000,-0
0.80833,-0
0.81667,0
0.82500,-0
0.83333,-1
0.84167,-1
0.85000,-1
0.85833,-1
0.86667,-1
0.87500,-1
0.88333,-1
0.89167,-1
0.90000,-1
0.90833,-1
0.91667,-1
0.92500,-1
0.93333,-1
0.94167,-0
0.95000,-0
0.95833,0
0.96667,0
0.97500,1
0.98333,1
0.99167,1
1.00000,1
1.00833,0
1.01667,0
1.02500,-0
1.03333,-0
1.04167,-1
1.05000,-1
1.05833,-0
1.06667,-1
1.07500,-1
1.08333,-1
1.09167,-1
1.10000,-1
1.10833,-0
1.11667,-0
1.12500,0
1.13333,0
1.14167,-0
1.15000,0
1.15833,0
1.16667,0
1.17500,0
1.18333,0
1.19167,0
1.20000,0
1.20833,0
1.21667,0
1.22500,0
1.23333,0
1.24167,0
1.25000,0
1.25833,0
1.26667,0
1.27500,0
1.28333,0
1.29167,0
1.30000,-0
1.30833,-0
1.31667,0
1.32500,1
1.33333,0
1.34167,0
1.35000,0
1.35833,0
1.36667,0
1.37500,0
1.38333,-0
1.39167,-0
1.40000,-0
1.40833,-0
1.41667,-0
1.42500,0
1.43333,1
1.44167,1
1.45000,1
1.45833,0
1.46667,0
1.47500,0
1.48333,0
1.49167,0
1.50000,0
1.50833,0
1.51667,0
1.52500,0
1.53333,-0
1.54167,-0
1.55000,-0
1.55833,-0
1.56667,0
1.57500,0
1.58333,0
1.59167,0
1.60000,-0
1.60833,-0
1.61667,-0
1.62500,-0
1.63333,-0
1.64167,-0
1.65000,0
1.65833,0
1.66667,0
1.67500,-0
1.68333,-0
1.69167,-0
1.70000,-0
1.70833,-0
1.71667,-0
1.72500,-0
1.73333,-0
1.74167,-0
1.75000,0
1.75833,0
1.76667,0
1.77500,-0
1.78333,-0
1.79167,-0
1.80000,-0
1.80833,-1
1.81667,-0
1.82500,-0
1.83333,0
1.84167,0
1.85000,0
1.85833,0
1.86667,0
1.87500,1
1.88333,0
1.89167,0
1.90000,0
1.90833,0
1.91667,0
1.92500,0
1.93333,-0
1.94167,-1
1.95000,-1
1.95833,-1
1.96667,-1
1.97500,-1
1.98333,-1
1.99167,-1
2.00000,-1
2.00833,-1
2.01667,-2
2.02500,-2
2.03333,-2
2.04167,-2
2.05000,-2
2.05833,-2
2.06667,-2
2.07500,-1
2.08333,-1
2.09167,-2
2.10000,-2
2.10833,-2
2.11667,-2
2.12500,-2
2.13333,-2
2.14167,-2
2.15000,-1
2.15833,-1
2.16667,-1
2.17500,-1
2.18333,-1
2.19167,-1
2.20000,-1
2.20833,-1
2.21667,-1
2.22500,-1
2.23333,-1
2.24167,-1
2.25000,-1
2.25833,-2
2.26667,-2
2.27500,-2
2.28333,-2
2.29167,-2
2.30000,-3
2.30833,-2
2.31667,-2
2.32500,-2
2.33333,-2
2.34167,-1
2.35000,-1
2.35833,-1
2.36667,-1
2.37500,-1
2.38333,-1
2.39167,-1
2.40000,-1
2.40833,-2
2.41667,-2
2.42500,-1
2.43333,-1
2.44167,-2
2.45000,-2
2.45833,-2
2.46667,-1
2.47500,-1
2.48333,-1
2.49167,-0
2.50000,-0
2.50833,-0
2.51667,-0
2.52500,-1
2.53333,-1
2.54167,-1
2.55000,-1
2.55833,-1
2.56667,-1
2.57500,-1
2.58333,-1
2.59167,-0
2.60000,-0
2.60833,-0
2.61667,-1
2.62500,-1
2.63333,-1
2.64167,-1
2.65000,-1
2.65833,-1
2.66667,-1
2.67500,-1
2.68333,-1
2.69167,-1
2.70000,-1
2.70833,-1
2.71667,-1
2.72500,-1
2.73333,-1
2.74167,-2
2.75000,-1
2.75833,-1
2.76667,-1
2.77500,-1
2.78333,-2
2.79167,-2
2.80000,-2
2.80833,-2
2.81667,-2
2.82500,-2
2.83333,-3
2.84167,-3
2.85000,-3
2.85833,-2
2.86667,-2
2.87500,-2
2.88333,-2
2.89167,-2
2.90000,-2
2.90833,-2
2.91667,-2
2.92500,-2
2.93333,-2
2.94167,-2
2.95000,-2
2.95833,-2
2.96667,-2
2.97500,-2
2.98333,-2
2.99167,-2
3.00000,-2
3.00833,-2
3.01667,-2
3.02500,-2
3.03333,-3
3.04167,-3
3.05000,-3
3.05833,-3
3.06667,-3
3.07500,-3
3.08333,-3
3.09167,-3
3.10000,-3
3.10833,-3
3.11667,-3
3.12500,-3
3.13333,-3
3.14167,-3
3.15000,-3
3.15833,-3
3.16667,-3
3.17500,-3
3.18333,-3
3.19167,-3
3.20000,-3
3.20833,-3
3.21667,-2
3.22500,-2
3.23333,-2
3.24167,-2
3.25000,-2
3.25833,-2
3.26667,-2
3.27500,-2
3.28333,-1
3.29167,-1
3.30000,-2
3.30833,-2
3.31667,-2
3.32500,-3
3.33333,-3
3.34167,-3
3.35000,-3
3.35833,-4
3.36667,-4
3.37500,-4
3.38333,-3
3.39167,-3
3.40000,-3
3.40833,-3
3.41667,-3
3.42500,-3
3.43333,-3
3.44167,-2
3.45000,-2
3.45833,-2
3.46667,-2
3.47500,-3
3.48333,-3
3.49167,-3
3.50000,-3
3.50833,-3
3.51667,-3
3.52500,-3
3.53333,-3
3.54167,-3
3.55000,-3
3.55833,-3
3.56667,-3
3.57500,-3
3.58333,-3
3.59167,-3
3.60000,-3
3.60833,-3
3.61667,-3
3.62500,-3
3.63333,-3
3.64167,-3
3.65000,-3
3.65833,-3
3.66667,-3
3.67500,-3
3.68333,-3
3.69167,-3
3.70000,-3
3.70833,-3
3.71667,-3
3.72500,-3
3.73333,-3
3.74167,-3
3.75000,-3
3.75833,-3
3.76667,-3
3.77500,-3
3.78333,-3
3.79167,-3
3.80000,-3
3.80833,-3
3.81667,-3
3.82500,-3
3.83333,-3
3.84167,-3
3.85000,-3
3.85833,-3
3.86667,-3
3.87500,-3
3.88333,-2
3.89167,-2
3.90000,-3
3.90833,-3
3.91667,-2
3.92500,-2
3.93333,-2
3.94167,-2
3.95000,-2
3.95833,-2
3.96667,-2
3.97500,-2
3.98333,-2
3.99167,-2
4.00000,-3
4.00833,-3
4.01667,-2
4.02500,-2
4.03333,-2
4.04167,-2
4.05000,-2
4.05833,-2
4.06667,-2
4.07500,-3
4.08333,-3
4.09167,-3
4.10000,-3
4.10833,-3
4.11667,-3
4.12500,-3
4.13333,-3
4.14167,-3
4.15000,-3
4.15833,-3
4.16667,-3
4.17500,-2
4.18333,-3
4.19167,-3
4.20000,-3
4.20833,-3
4.21667,-4
4.22500,-4
4.23333,-4
4.24167,-4
4.25000,-3
4.25833,-3
4.26667,-3
4.27500,-3
4.28333,-3
4.29167,-3
4.30000,-3
4.30833,-3
4.31667,-3
4.32500,-3
4.33333,-3
4.34167,-3
4.35000,-4
4.35833,-4
4.36667,-4
4.37500,-3
4.38333,-3
4.39167,-3
4.40000,-3
4.40833,-3
4.41667,-3
4.42500,-3
4.43333,-4
4.44167,-4
4.45000,-4
4.45833,-4
4.46667,-3
4.47500,-3
4.48333,-3
4.49167,-3
4.50000,-3
4.50833,-3
4.51667,-3
4.52500,-3
4.53333,-3
4.54167,-3
4.55000,-3
4.55833,-3
4.56667,-3
4.57500,-3
4.58333,-3
4.59167,-3
4.60000,-3
4.60833,-3
4.61667,-3
4.62500,-3
4.63333,-3
4.64167,-3
4.65000,-3
4.65833,-3
4.66667,-4
4.67500,-4
4.68333,-3
4.69167,-4
4.70000,-4
4.70833,-4
4.71667,-4
4.72500,-4
4.73333,-4
4.74167,-4
4.75000,-4
4.75833,-4
4.76667,-4
4.77500,-4
4.78333,-4
4.79167,-4
4.80000,-4
4.80833,-4
4.81667,-4
4.82500,-4
4.83333,-3
4.84167,-4
4.85000,-4
4.85833,-4
4.86667,-4
4.87500,-4
4.88333,-4
4.89167,-4
4.90000,-5
4.90833,-5
4.91667,-5
4.92500,-5
4.93333,-4
4.94167,-5
4.95000,-4
4.95833,-4
4.96667,-4
4.97500,-4
4.98333,-4
4.99167,-4
5.00000,-4
5.00833,-4
5.01667,-4
5.02500,-4
5.03333,-4
5.04167,-4
5.05000,-4
5.05833,-4
5.06667,-4
5.07500,-4
5.08333,-4
5.09167,-4
5.10000,-4
5.10833,-4
5.11667,-4
5.12500,-4
5.13333,-4
5.14167,-4
5.15000,-4
5.15833,-4
5.16667,-4
5.17500,-4
5.18333,-5
5.19167,-5
5.20000,-5
5.20833,-5
5.21667,-5
5.22500,-6
5.23333,-6
5.24167,-6
5.25000,-7
5.25833,-7
5.26667,-6
5.27500,-6
5.28333,-6
5.29167,-5
5.30000,-5
5.30833,-5
5.31667,-6
5.32500,-6
5.33333,-6
5.34167,-6
5.35000,-6
5.35833,-6
5.36667,-6
5.37500,-6
5.38333,-5
5.39167,-5
5.40000,-5
5.40833,-5
5.41667,-5
5.42500,-6
5.43333,-6
5.44167,-6
5.45000,-6
5.45833,-6
5.46667,-7
5.47500,-7
5.48333,-6
5.49167,-6
5.50000,-6
5.50833,-7
5.51667,-7
5.52500,-7
5.53333,-7
5.54167,-6
5.55000,-6
5.55833,-6
5.56667,-6
5.57500,-6
5.58333,-6
5.59167,-6
5.60000,-6
5.60833,-6
5.61667,-6
5.62500,-6
5.63333,-6
5.64167,-6
5.65000,-6
5.65833,-6
5.66667,-6
5.67500,-6
5.68333,-6
5.69167,-6
5.70000,-6
5.70833,-6
5.71667,-6
5.72500,-6
5.73333,-6
5.74167,-6
5.75000,-7
5.75833,-7
5.76667,-6
5.77500,-7
5.78333,-7
5.79167,-7
5.80000,-6
5.80833,-6
5.81667,-6
5.82500,-6
5.83333,-6
5.84167,-6
5.85000,-6
5.85833,-6
5.86667,-6
5.87500,-6
5.88333,-7
5.89167,-7
5.90000,-7
5.90833,-7
5.91667,-6
5.92500,-6
5.93333,-6
5.94167,-5
5.95000,-6
5.95833,-6
5.96667,-6
5.97500,-6
5.98333,-6
5.99167,-7
6.00000,-7
6.00833,-7
6.01667,-7
6.02500,-7
6.03333,-7
6.04167,-7
6.05000,-7
6.05833,-7
6.06667,-6
6.07500,-7
6.08333,-7
6.09167,-6
6.10000,-6
6.10833,-6
6.11667,-6
6.12500,-6
6.13333,-6
6.14167,-6
6.15000,-6
6.15833,-6
6.16667,-6
6.17500,-6
6.18333,-6
6.19167,-6
6.20000,-6
6.20833,-7
6.21667,-7
6.22500,-7
6.23333,-7
6.24167,-7
6.25000,-6
6.25833,-7
6.26667,-7
6.27500,-7
6.28333,-7
6.29167,-6
6.30000,-6
6.30833,-6
6.31667,-6
6.32500,-6
6.33333,-7
6.34167,-7
6.35000,-7
6.35833,-7
6.36667,-7
6.37500,-7
6.38333,-7
6.39167,-7
6.40000,-7
6.40833,-7
6.41667,-7
6.42500,-8
6.43333,-7
6.44167,-8
6.45000,-8
6.45833,-8
6.46667,-8
6.47500,-8
6.48333,-8
6.49167,-7
6.50000,-7
6.50833,-7
6.51667,-7
6.52500,-7
6.53333,-7
6.54167,-7
6.55000,-7
6.55833,-7
6.56667,-7
6.57500,-7
6.58333,-7
6.59167,-7
6.60000,-7
6.60833,-7
6.61667,-7
6.62500,-7
6.63333,-7
6.64167,-6
6.65000,-6
6.65833,-7
6.66667,-7
6.67500,-7
6.68333,-7
6.69167,-6
6.70000,-6
6.70833,-7
6.71667,-7
6.72500,-7
6.73333,-7
6.74167,-7
6.75000,-7
6.75833,-7
6.76667,-7
6.77500,-7
6.78333,-7
6.79167,-7
6.80000,-7
6.80833,-7
6.81667,-7
6.82500,-7
6.83333,-7
6.84167,-7
6.85000,-7
6.85833,-7
6.86667,-7
6.87500,-7
6.88333,-7
6.89167,-7
6.90000,-7
6.90833,-7
6.91667,-7
6.92500,-7
6.93333,-8
6.94167,-8
6.95000,-7
6.95833,-7
6.96667,-7
6.97500,-7
6.98333,-7
6.99167,-7
7.00000,-7
7.00833,-7
7.01667,-7
7.02500,-7
7.03333,-7
7.04167,-8
7.05000,-8
7.05833,-8
7.06667,-8
7.07500,-8
7.08333,-8
7.09167,-8
7.10000,-8
7.10833,-8
7.11667,-7
7.12500,-7
7.13333,-7
7.14167,-7
7.15000,-7
7.15833,-7
7.16667,-7
7.17500,-8
7.18333,-8
7.19167,-8
7.20000,-8
7.20833,-8
7.21667,-8
7.22500,-8
7.23333,-7
7.24167,-7
7.25000,-7
7.25833,-7
7.26667,-7
7.27500,-7
7.28333,-7
7.29167,-7
7.30000,-8
7.30833,-8
7.31667,-8
7.32500,-8
7.33333,-8
7.34167,-8
7.35000,-9
7.35833,-9
7.36667,-9
7.37500,-9
7.38333,-9
7.39167,-8
7.40000,-8
7.40833,-8
7.41667,-8
7.42500,-8
7.43333,-8
7.44167,-8
7.45000,-8
7.45833,-8
7.46667,-9
7.47500,-8
7.48333,-8
7.49167,-8
7.50000,-8
7.50833,-8
7.51667,-9
7.52500,-9
7.53333,-9
7.54167,-9
7.55000,-9
7.55833,-9
7.56667,-9
7.57500,-10
7.58333,-10
7.59167,-10
7.60000,-10
7.60833,-10
7.61667,-10
7.62500,-9
7.63333,-9
7.64167,-8
7.65000,-8
7.65833,-8
7.66667,-8
7.67500,-8
7.68333,-8
7.69167,-8
7.70000,-8
7.70833,-8
7.71667,-8
7.72500,-8
7.73333,-8
7.74167,-8
7.75000,-8
7.75833,-8
7.76667,-8
7.77500,-7
7.78333,-7
7.79167,-7
7.80000,-8
7.80833,-8
7.81667,-8
7.82500,-8
7.83333,-8
7.84167,-8
7.85000,-8
7.85833,-8
7.86667,-8
7.87500,-9
7.88333,-9
7.89167,-9
7.90000,-8
7.90833,-8
7.91667,-8
7.92500,-8
7.93333,-8
7.94167,-9
7.95000,-9
7.95833,-9
7.96667,-9
7.97500,-9
7.98333,-9
7.99167,-9
8.00000,-9
8.00833,-9
8.01667,-9
8.02500,-9
8.03333,-9
8.04167,-9
8.05000,-9
8.05833,-9
8.06667,-9
8.07500,-9
8.08333,-9
8.09167,-9
8.10000,-9
8.10833,-9
8.11667,-9
8.12500,-9
8.13333,-9
8.14167,-9
8.15000,-9
8.15833,-9
8.16667,-9
8.17500,-9
8.18333,-9
8.19167,-10
8.20000,-10
8.20833,-10
8.21667,-10
8.22500,-10
8.23333,-10
8.24167,-10
8.25000,-10
8.25833,-10
8.26667,-10
8.27500,-10
8.28333,-10
8.29167,-10
8.30000,-9
8.30833,-9
8.31667,-9
8.32500,-9
8.33333,-9
8.34167,-10
8.35000,-10
8.35833,-10
8.36667,-10
8.37500,-10
8.38333,-11
8.39167,-10
8.40000,-10
8.40833,-10
8.41667,-10
8.42500,-10
8.43333,-10
8.44167,-10
8.45000,-11
8.45833,-11
8.46667,-10
8.47500,-10
8.48333,-10
8.49167,-10
8.50000,-10
8.50833,-11
8.51667,-11
8.52500,-10
8.53333,-10
8.54167,-10
8.55000,-10
8.55833,-11
8.56667,-11
8.57500,-11
8.58333,-10
8.59167,-10
8.60000,-10
8.60833,-10
8.61667,-10
8.62500,-10
8.63333,-10
8.64167,-9
8.65000,-9
8.65833,-9
8.66667,-10
8.67500,-10
8.68333,-9
8.69167,-9
8.70000,-9
8.70833,-9
8.71667,-10
8.72500,-10
8.73333,-10
8.74167,-10
8.75000,-10
8.75833,-10
8.76667,-11
8.77500,-11
8.78333,-11
8.79167,-11
8.80000,-10
8.80833,-10
8.81667,-11
8.82500,-11
8.83333,-11
8.84167,-11
8.85000,-11
8.85833,-11
8.86667,-11
8.87500,-11
8.88333,-11
8.89167,-10
8.90000,-10
8.90833,-10
8.91667,-10
8.92500,-10
8.93333,-10
8.94167,-10
8.95000,-10
8.95833,-10
8.96667,-10
8.97500,-10
8.98333,-10
8.99167,-10
9.00000,-10
9.00833,-10
9.01667,-10
9.02500,-10
9.03333,-11
9.04167,-11
9.05000,-11
9.05833,-12
9.06667,-12
9.07500,-12
9.08333,-12
9.09167,-12
9.10000,-12
9.10833,-11
9.11667,-11
9.12500,-11
9.13333,-11
9.14167,-10
9.15000,-10
9.15833,-10
9.16667,-10
9.17500,-10
9.18333,-10
9.19167,-10
9.20000,-9
9.20833,-9
9.21667,-9
9.22500,-9
9.23333,-9
9.24167,-9
9.25000,-9
9.25833,-10
9.26667,-10
9.27500,-11
9.28333,-11
9.29167,-11
9.30000,-11
9.30833,-11
9.31667,-11
9.32500,-12
9.33333,-12
9.34167,-12
9.35000,-12
9.35833,-12
9.36667,-12
9.37500,-12
9.38333,-12
9.39167,-12
9.40000,-12
9.40833,-12
9.41667,-12
9.42500,-12
9.43333,-12
9.44167,-12
9.45000,-12
9.45833,-11
9.46667,-11
9.47500,-11
9.48333,-10
9.49167,-10
9.50000,-10
9.50833,-10
9.51667,-11
9.52500,-11
9.53333,-11
9.54167,-11
9.55000,-10
9.55833,-10
9.56667,-10
9.57500,-10
9.58333,-10
9.59167,-10
9.60000,-11
9.60833,-10
9.61667,-10
9.62500,-10
9.63333,-10
9.64167,-11
9.65000,-11
9.65833,-11
9.66667,-11
9.67500,-11
9.68333,-11
9.69167,-11
9.70000,-11
9.70833,-10
9.71667,-10
9.72500,-10
9.73333,-10
9.74167,-10
9.75000,-10
9.75833,-11
9.76667,-11
9.77500,-11
9.78333,-11
9.79167,-11
9.80000,-11
9.80833,-11
9.81667,-11
9.82500,-10
9.83333,-10
9.84167,-11
9.85000,-11
9.85833,-11
9.86667,-11
9.87500,-11
9.88333,-12
9.89167,-12
9.90000,-11
9.90833,-11
9.91667,-11
9.92500,-11
9.93333,-11
9.94167,-11
9.95000,-11
9.95833,-10
9.96667,-10
9.97500,-10
9.98333,-10
9.99167,-10
10.00000,-11
10.00833,-11
10.01667,-11
10.02500,-11
10.03333,-11
10.04167,-11
10.05000,-11
10.05833,-11
10.06667,-11
10.07500,-11
10.08333,-12
10.09167,-12
10.10000,-12
10.10833,-12
10.11667,-12
10.12500,-12
10.13333,-12
10.14167,-12
10.15000,-12
10.15833,-12
10.16667,-12
10.17500,-12
10.18333,-12
10.19167,-12
10.20000,-12
10.20833,-12
10.21667,-12
10.22500,-11
10.23333,-11
10.24167,-11
10.25000,-11
10.25833,-11
10.26667,-11
10.27500,-11
10.28333,-11
10.29167,-11
10.30000,-12
10.30833,-11
10.31667,-11
10.32500,-11
10.33333,-11
10.34167,-11
10.35000,-11
10.35833,-11
10.36667,-11
10.37500,-11
10.38333,-11
10.39167,-11
10.40000,-12
10.40833,-12
10.41667,-12
10.42500,-12
10.43333,-11
10.44167,-11
10.45000,-12
10.45833,-12
10.46667,-12
10.47500,-12
10.48333,-13
10.49167,-14
10.50000,-14
10.50833,-15
10.51667,-15
10.52500,-16
10.53333,-18
10.54167,-19
10.55000,-21
10.55833,-24
10.56667,-27
10.57500,-32
10.58333,-39
10.59167,-47
10.60000,-58
10.60833,-74
10.61667,-94
10.62500,-121
10.63333,-156
10.64167,-202
10.65000,-261
10.65833,-336
10.66667,-432
10.67500,-553
10.68333,-703
10.69167,-888
10.70000,-1113
10.70833,-1383
10.71667,-1705
10.72500,-2085
10.73333,-2528
10.74167,-3038
10.75000,-3618
10.75833,-4271
10.76667,-4998
10.77500,-5796
10.78333,-6663
10.79167,-7592
10.80000,-8576
10.80833,-9604
10.81667,-10664
10.82500,-11743
10.83333,-12826
10.84167,-13898
10.85000,-14942
10.85833,-15943
10.86667,-16886
10.87500,-17758
10.88333,-18546
10.89167,-19238
10.90000,-19827
10.90833,-20306
10.91667,-20671
10.92500,-20919
10.93333,-21052
10.94167,-21071
10.95000,-20979
10.95833,-20783
10.96667,-20488
10.97500,-20102
10.98333,-19634
10.99167,-19094
11.00000,-18490
11.00833,-17832
11.01667,-17129
11.02500,-16390
11.03333,-15624
11.04167,-14840
11.05000,-14047
11.05833,-13251
11.06667,-12459
11.07500,-11678
11.08333,-10913
11.09167,-10168
11.10000,-9447
11.10833,-8753
11.11667,-8090
11.12500,-7458
11.13333,-6859
11.14167,-6295
11.15000,-5765
11.15833,-5269
11.16667,-4808
11.17500,-4380
11.18333,-3984
11.19167,-3620
11.20000,-3285
11.20833,-2978
11.21667,-2699
11.22500,-2444
11.23333,-2213
11.24167,-2004
11.25000,-1814
11.25833,-1643
11.26667,-1489
11.27500,-1350
11.28333,-1226
11.29167,-1114
11.30000,-1014
11.30833,-925
11.31667,-845
11.32500,-774
11.33333,-710
11.34167,-653
11.35000,-602
11.35833,-556
11.36667,-514
11.37500,-477
11.38333,-444
11.39167,-414
11.40000,-388
11.40833,-364
11.41667,-342
11.42500,-323
11.43333,-305
11.44167,-288
11.45000,-274
11.45833,-260
11.46667,-248
11.47500,-237
11.48333,-227
11.49167,-217
11.50000,-208
11.50833,-200
11.51667,-193
11.52500,-186
11.53333,-179
11.54167,-173
11.55000,-167
11.55833,-162
11.56667,-157
11.57500,-152
11.58333,-148
11.59167,-143
11.60000,-139
11.60833,-136
11.61667,-132
11.62500,-129
11.63333,-126
11.64167,-123
11.65000,-120
11.65833,-117
11.66667,-114
11.67500,-112
11.68333,-110
11.69167,-107
11.70000,-105
11.70833,-103
11.71667,-101
11.72500,-99
11.73333,-98
11.74167,-96
11.75000,-94
11.75833,-93
11.76667,-91
11.77500,-90
11.78333,-88
11.79167,-87
11.80000,-85
11.80833,-84
11.81667,-83
11.82500,-82
11.83333,-81
11.84167,-80
11.85000,-79
11.85833,-78
11.86667,-77
11.87500,-76
11.88333,-75
11.89167,-74
11.90000,-73
11.90833,-73
11.91667,-72
11.92500,-71
11.93333,-71
11.94167,-71
11.95000,-70
11.95833,-70
11.96667,-69
11.97500,-68
11.98333,-68
11.99167,-68
12.00000,-67
12.00833,-67
12.01667,-66
12.02500,-66
12.03333,-65
12.04167,-65
12.05000,-64
12.05833,-64
12.06667,-63
12.07500,-63
12.08333,-63
12.09167,-62
12.10000,-62
12.10833,-62
12.11667,-62
12.12500,-61
12.13333,-61
12.14167,-61
12.15000,-60
12.15833,-60
12.16667,-60
12.17500,-59
12.18333,-59
12.19167,-58
12.20000,-58
12.20833,-58
12.21667,-58
12.22500,-57
12.23333,-57
12.24167,-56
12.25000,-56
12.25833,-55
12.26667,-55
12.27500,-55
12.28333,-55
12.29167,-55
12.30000,-55
12.30833,-54
12.31667,-54
12.32500,-54
12.33333,-54
12.34167,-54
12.35000,-54
12.35833,-53
12.36667,-53
12.37500,-53
12.38333,-53
12.39167,-52
12.40000,-52
12.40833,-52
12.41667,-52
12.42500,-51
12.43333,-51
12.44167,-50
12.45000,-50
12.45833,-50
12.46667,-50
12.47500,-49
12.48333,-49
12.49167,-48
12.50000,-48
12.50833,-48
12.51667,-47
12.52500,-48
12.53333,-48
12.54167,-48
12.55000,-48
12.55833,-48
12.56667,-47
12.57500,-47
12.58333,-47
12.59167,-47
12.60000,-47
12.60833,-46
12.61667,-46
12.62500,-46
12.63333,-46
12.64167,-46
12.65000,-45
12.65833,-44
12.66667,-44
12.67500,-44
12.68333,-43
12.69167,-43
12.70000,-43
12.70833,-44
12.71667,-43
12.72500,-43
12.73333,-43
12.74167,-43
12.75000,-43
12.75833,-43
12.76667,-42
12.77500,-42
12.78333,-42
12.79167,-42
12.80000,-41
12.80833,-40
12.81667,-40
12.82500,-39
12.83333,-39
12.84167,-38
12.85000,-38
12.85833,-38
12.86667,-38
12.87500,-38
12.88333,-38
12.89167,-38
12.90000,-38
12.90833,-37
12.91667,-37
12.92500,-37
12.93333,-37
12.94167,-36
12.95000,-36
12.95833,-36
12.96667,-36
12.97500,-35
12.98333,-35
12.99167,-35
13.00000,-34
13.00833,-34
13.01667,-34
13.02500,-33
13.03333,-33
13.04167,-33
13.05000,-33
13.05833,-33
13.06667,-33
13.07500,-33
13.08333,-32
13.09167,-32
13.10000,-31
13.10833,-31
13.11667,-30
13.12500,-30
13.13333,-30
13.14167,-30
13.15000,-30
13.15833,-31
13.16667,-31
13.17500,-31
13.18333,-31
13.19167,-31
13.20000,-30
13.20833,-30
13.21667,-30
13.22500,-29
13.23333,-29
13.24167,-29
13.25000,-29
13.25833,-28
13.26667,-28
13.27500,-27
13.28333,-27
13.29167,-27
13.30000,-27
13.30833,-27
13.31667,-28
13.32500,-28
13.33333,-28
13.34167,-28
13.35000,-29
13.35833,-29
13.36667,-28
13.37500,-28
13.38333,-28
13.39167,-28
13.40000,-28
13.40833,-28
13.41667,-28
13.42500,-28
13.43333,-28
13.44167,-28
13.45000,-28
13.45833,-28
13.46667,-28
13.47500,-28
13.48333,-28
13.49167,-27
13.50000,-27
13.50833,-27
13.51667,-27
13.52500,-28
13.53333,-28
13.54167,-28
13.55000,-28
13.55833,-28
13.56667,-27
13.57500,-27
13.58333,-27
13.59167,-27
13.60000,-27
13.60833,-27
13.61667,-27
13.62500,-27
13.63333,-27
13.64167,-27
13.65000,-27
13.65833,-27
13.66667,-27
13.67500,-27
13.68333,-27
13.69167,-26
13.70000,-26
13.70833,-26
13.71667,-27
13.72500,-27
13.73333,-27
13.74167,-27
13.75000,-26
13.75833,-26
13.76667,-26
13.77500,-26
13.78333,-26
13.79167,-26
13.80000,-25
13.80833,-25
13.81667,-25
13.82500,-25
13.83333,-25
13.84167,-25
13.85000,-25
13.85833,-25
13.86667,-25
13.87500,-25
13.88333,-25
13.89167,-25
13.90000,-25
13.90833,-25
13.91667,-25
13.92500,-25
13.93333,-25
13.94167,-25
13.95000,-26
13.95833,-26
13.96667,-25
13.97500,-25
13.98333,-25
13.99167,-24
14.00000,-24
14.00833,-24
14.01667,-23
14.02500,-23
14.03333,-23
14.04167,-23
14.05000,-23
14.05833,-23
14.06667,-23
14.07500,-23
14.08333,-24
14.09167,-24
14.10000,-24
14.10833,-24
14.11667,-24
14.12500,-24
14.13333,-24
14.14167,-24
14.15000,-24
14.15833,-24
14.16667,-24
14.17500,-23
14.18333,-23
14.19167,-23
14.20000,-22
14.20833,-22
14.21667,-22
14.22500,-22
14.23333,-22
14.24167,-22
14.25000,-22
14.25833,-23
14.26667,-22
14.27500,-22
14.28333,-23
14.29167,-23
14.30000,-23
14.30833,-23
14.31667,-23
14.32500,-23
14.33333,-23
14.34167,-23
14.35000,-22
14.35833,-22
14.36667,-22
14.37500,-22
14.38333,-22
14.39167,-22
14.40000,-22
14.40833,-21
14.41667,-22
14.42500,-21
14.43333,-21
14.44167,-21
14.45000,-21
14.45833,-21
14.46667,-21
14.47500,-21
14.48333,-21
14.49167,-21
14.50000,-21
14.50833,-21
14.51667,-21
14.52500,-21
14.53333,-21
14.54167,-21
14.55000,-21
14.55833,-21
14.56667,-21
14.57500,-21
14.58333,-21
14.59167,-21
14.60000,-20
14.60833,-20
14.61667,-20
14.62500,-20
14.63333,-20
14.64167,-20
14.65000,-20
14.65833,-20
14.66667,-20
14.67500,-19
14.68333,-20
14.69167,-19
14.70000,-19
14.70833,-20
14.71667,-20
14.72500,-20
14.73333,-20
14.74167,-20
14.75000,-20
14.75833,-20
14.76667,-20
14.77500,-20
14.78333,-20
14.79167,-20
14.80000,-20
14.80833,-20
14.81667,-20
14.82500,-20
14.83333,-20
14.84167,-20
14.85000,-20
14.85833,-19
14.86667,-19
14.87500,-18
14.88333,-18
14.89167,-18
14.90000,-18
14.90833,-18
14.91667,-18
14.92500,-17
14.93333,-17
14.94167,-17
14.95000,-16
14.95833,-16
14.96667,-16
14.97500,-15
14.98333,-15
14.99167,-14
15.00000,-14
15.00833,-13
15.01667,-12
15.02500,-11
15.03333,-10
15.04167,-9
15.05000,-8
15.05833,-7
15.06667,-5
15.07500,-4
15.08333,-2
15.09167,1
15.10000,3
15.10833,6
15.11667,9
15.12500,13
15.13333,18
15.14167,24
15.15000,31
15.15833,39
15.16667,49
15.17500,60
15.18333,73
15.19167,89
15.20000,107
15.20833,129
15.21667,154
15.22500,183
15.23333,216
15.24167,254
15.25000,299
15.25833,349
15.26667,406
15.27500,471
15.28333,544
15.29167,627
15.30000,718
15.30833,820
15.31667,933
15.32500,1056
15.33333,1192
15.34167,1340
15.35000,1499
15.35833,1672
15.36667,1857
15.37500,2054
15.38333,2262
15.39167,2483
15.40000,2713
15.40833,2954
15.41667,3204
15.42500,3461
15.43333,3725
15.44167,3994
15.45000,4266
15.45833,4541
15.46667,4815
15.47500,5088
15.48333,5356
15.49167,5618
15.50000,5873
15.50833,6118
15.51667,6352
15.52500,6571
15.53333,6776
15.54167,6964
15.55000,7133
15.55833,7283
15.56667,7413
15.57500,7522
15.58333,7610
15.59167,7674
15.60000,7716
15.60833,7736
15.61667,7732
15.62500,7707
15.63333,7660
15.64167,7593
15.65000,7506
15.65833,7400
15.66667,7277
15.67500,7137
15.68333,6982
15.69167,6814
15.70000,6633
15.70833,6442
15.71667,6241
15.72500,6033
15.73333,5819
15.74167,5601
15.75000,5378
15.75833,5154
15.76667,4929
15.77500,4704
15.78333,4480
15.79167,4259
15.80000,4042
15.80833,3828
15.81667,3620
15.82500,3417
15.83333,3220
15.84167,3029
15.85000,2845
15.85833,2668
15.86667,2499
15.87500,2337
15.88333,2183
15.89167,2036
15.90000,1896
15.90833,1764
15.91667,1639
15.92500,1522
15.93333,1411
15.94167,1308
15.95000,1211
15.95833,1120
15.96667,1035
15.97500,956
15.98333,883
15.99167,814
16.00000,751
16.00833,692
16.01667,637
16.02500,587
16.03333,541
16.04167,498
16.05000,459
16.05833,422
16.06667,389
16.07500,358
16.08333,329
16.09167,304
16.10000,280
16.10833,258
16.11667,239
16.12500,221
16.13333,204
16.14167,189
16.15000,176
16.15833,163
16.16667,151
16.17500,141
16.18333,131
16.19167,122
16.20000,113
16.20833,106
16.21667,98
16.22500,92
16.23333,86
16.24167,80
16.25000,75
16.25833,70
16.26667,66
16.27500,63
16.28333,59
16.29167,56
16.30000,53
16.30833,50
16.31667,48
16.32500,45
16.33333,43
16.34167,41
16.35000,39
16.35833,37
16.36667,36
16.37500,34
16.38333,33
16.39167,31
16.40000,30
16.40833,29
16.41667,27
16.42500,27
16.43333,26
16.44167,25
16.45000,24
16.45833,23
16.46667,22
16.47500,21
16.48333,21
16.49167,21
16.50000,20
16.50833,19
16.51667,19
16.52500,18
16.53333,18
16.54167,17
16.55000,17
16.55833,17
16.56667,17
16.57500,16
16.58333,16
16.59167,16
16.60000,15
16.60833,14
16.61667,14
16.62500,13
16.63333,13
16.64167,13
16.65000,13
16.65833,13
16.66667,12
16.67500,12
16.68333,12
16.69167,11
16.70000,10
16.70833,10
16.71667,10
16.72500,10
16.73333,10
16.74167,9
16.75000,9
16.75833,9
16.76667,9
16.77500,8
16.78333,8
16.79167,7
16.80000,7
16.80833,7
16.81667,7
16.82500,6
16.83333,6
16.84167,6
16.85000,5
16.85833,6
16.86667,6
16.87500,6
16.88333,6
16.89167,6
16.90000,5
16.90833,5
16.91667,5
16.92500,5
16.93333,5
16.94167,4
16.95000,4
16.95833,4
16.96667,4
16.97500,4
16.98333,4
16.99167,3
17.00000,3
17.00833,3
17.01667,3
17.02500,3
17.03333,2
17.04167,2
17.05000,2
17.05833,3
17.06667,3
17.07500,2
17.08333,2
17.09167,2
17.10000,2
17.10833,2
17.11667,1
17.12500,1
17.13333,1
17.14167,1
17.15000,1
17.15833,1
17.16667,1
17.17500,0
17.18333,0
17.19167,-0
17.20000,-0
17.20833,-0
17.21667,-0
17.22500,-0
17.23333,-0
17.24167,-1
17.25000,-1
17.25833,-1
17.26667,-1
17.27500,-1
17.28333,-1
17.29167,-1
17.30000,-1
17.30833,-1
17.31667,-1
17.32500,-1
17.33333,-1
17.34167,-1
17.35000,-1
17.35833,-1
17.36667,-2
17.37500,-2
17.38333,-2
17.39167,-2
17.40000,-1
17.40833,-1
17.41667,-2
17.42500,-2
17.43333,-2
17.44167,-2
17.45000,-2
17.45833,-3
17.46667,-3
17.47500,-3
17.48333,-3
17.49167,-3
17.50000,-3
17.50833,-4
17.51667,-4
17.52500,-4
17.53333,-4
17.54167,-4
17.55000,-4
17.55833,-4
17.56667,-4
17.57500,-4
17.58333,-4
17.59167,-4
17.60000,-4
17.60833,-4
17.61667,-4
17.62500,-4
17.63333,-4
17.64167,-4
17.65000,-4
17.65833,-4
17.66667,-4
17.67500,-4
17.68333,-4
17.69167,-4
17.70000,-4
17.70833,-4
17.71667,-4
17.72500,-4
17.73333,-4
17.74167,-4
17.75000,-5
17.75833,-5
17.76667,-5
17.77500,-5
17.78333,-5
17.79167,-5
17.80000,-5
17.80833,-5
17.81667,-5
17.82500,-6
17.83333,-6
17.84167,-6
17.85000,-5
17.85833,-5
17.86667,-5
17.87500,-5
17.88333,-5
17.89167,-5
17.90000,-5
17.90833,-5
17.91667,-6
17.92500,-6
17.93333,-6
17.94167,-6
17.95000,-6
17.95833,-6
17.96667,-6
17.97500,-6
17.98333,-6
17.99167,-7
18.00000,-7
18.00833,-7
18.01667,-7
18.02500,-7
18.03333,-7
18.04167,-7
18.05000,-7
18.05833,-8
18.06667,-8
18.07500,-7
18.08333,-7
18.09167,-7
18.10000,-7
18.10833,-7
18.11667,-7
18.12500,-8
18.13333,-8
18.14167,-8
18.15000,-8
18.15833,-8
18.16667,-8
18.17500,-8
18.18333,-8
18.19167,-8
18.20000,-8
18.20833,-8
18.21667,-8
18.22500,-8
18.23333,-8
18.24167,-8
18.25000,-8
18.25833,-8
18.26667,-9
18.27500,-9
18.28333,-9
18.29167,-9
18.30000,-9
18.30833,-8
18.31667,-8
18.32500,-8
18.33333,-8
18.34167,-8
18.35000,-8
18.35833,-8
18.36667,-8
18.37500,-8
18.38333,-8
18.39167,-9
18.40000,-9
18.40833,-9
18.41667,-9
18.42500,-9
18.43333,-9
18.44167,-9
18.45000,-9
18.45833,-9
18.46667,-9
18.47500,-9
18.48333,-8
18.49167,-8
18.50000,-8
18.50833,-8
18.51667,-8
18.52500,-8
18.53333,-9
18.54167,-9
18.55000,-9
18.55833,-9
18.56667,-9
18.57500,-10
18.58333,-10
18.59167,-9
18.60000,-9
18.60833,-8
18.61667,-8
18.62500,-8
18.63333,-8
18.64167,-8
18.65000,-7
18.65833,-7
18.66667,-7
18.67500,-7
18.68333,-7
18.69167,-6
18.70000,-6
18.70833,-5
18.71667,-5
18.72500,-4
18.73333,-4
18.74167,-3
18.75000,-2
18.75833,-2
18.76667,-1
18.77500,0
18.78333,1
18.79167,1
18.80000,1
18.80833,2
18.81667,3
18.82500,3
18.83333,4
18.84167,4
18.85000,5
18.85833,6
18.86667,6
18.87500,7
18.88333,8
18.89167,8
18.90000,8
18.90833,9
18.91667,9
18.92500,9
18.93333,9
18.94167,9
18.95000,9
18.95833,9
18.96667,9
18.97500,9
18.98333,9
18.99167,8
19.00000,8
19.00833,8
19.01667,7
19.02500,7
19.03333,7
19.04167,6
19.05000,5
19.05833,5
19.06667,4
19.07500,3
19.08333,2
19.09167,2
19.10000,1
19.10833,0
19.11667,-0
19.12500,-1
19.13333,-1
19.14167,-2
19.15000,-2
19.15833,-3
19.16667,-3
19.17500,-3
19.18333,-4
19.19167,-4
19.20000,-4
19.20833,-5
19.21667,-5
19.22500,-6
19.23333,-6
19.24167,-7
19.25000,-7
19.25833,-8
19.26667,-8
19.27500,-8
19.28333,-8
19.29167,-8
19.30000,-8
19.30833,-8
19.31667,-8
19.32500,-8
19.33333,-9
19.34167,-9
19.35000,-9
19.35833,-10
19.36667,-10
19.37500,-10
19.38333,-10
19.39167,-11
19.40000,-11
19.40833,-11
19.41667,-11
19.42500,-11
19.43333,-11
19.44167,-11
19.45000,-11
19.45833,-11
19.46667,-12
19.47500,-12
19.48333,-12
19.49167,-12
19.50000,-12
19.50833,-11
19.51667,-11
19.52500,-11
19.53333,-11
19.54167,-11
19.55000,-11
19.55833,-11
19.56667,-11
19.57500,-11
19.58333,-11
19.59167,-12
19.60000,-12
19.60833,-12
19.61667,-12
19.62500,-13
19.63333,-13
19.64167,-13
19.65000,-13
19.65833,-13
19.66667,-13
19.67500,-13
19.68333,-12
19.69167,-12
19.70000,-12
19.70833,-13
19.71667,-13
19.72500,-13
19.73333,-13
19.74167,-13
19.75000,-13
19.75833,-12
19.76667,-12
19.77500,-12
19.78333,-11
19.79167,-11
19.80000,-11
19.80833,-12
19.81667,-12
19.82500,-12
19.83333,-12
19.84167,-12
19.85000,-12
19.85833,-12
19.86667,-12
19.87500,-11
19.88333,-11
19.89167,-11
19.90000,-12
19.90833,-12
19.91667,-12
19.92500,-11
19.93333,-11
19.94167,-11
19.95000,-11
19.95833,-11
19.96667,-11
19.97500,-12
19.98333,-12
19.99167,-12
20.00000,-12
20.00833,-12
20.01667,-12
20.02500,-13
20.03333,-13
20.04167,-13
20.05000,-13
20.05833,-13
20.06667,-13
20.07500,-13
20.08333,-13
20.09167,-13
20.10000,-13
20.10833,-13
20.11667,-13
20.12500,-13
20.13333,-13
20.14167,-13
20.15000,-13
20.15833,-13
20.16667,-13
20.17500,-13
20.18333,-13
20.19167,-13
20.20000,-13
20.20833,-13
20.21667,-13
20.22500,-13
20.23333,-13
20.24167,-13
20.25000,-13
20.25833,-13
20.26667,-13
20.27500,-13
20.28333,-13
20.29167,-13
20.30000,-13
20.30833,-13
20.31667,-13
20.32500,-13
20.33333,-13
20.34167,-13
20.35000,-13
20.35833,-13
20.36667,-13
20.37500,-13
20.38333,-13
20.39167,-13
20.40000,-13
20.40833,-14
20.41667,-14
20.42500,-13
20.43333,-13
20.44167,-13
20.45000,-13
20.45833,-13
20.46667,-12
20.47500,-12
20.48333,-12
20.49167,-12
20.50000,-12
20.50833,-12
20.51667,-12
20.52500,-12
20.53333,-12
20.54167,-12
20.55000,-12
20.55833,-12
20.56667,-13
20.57500,-13
20.58333,-14
20.59167,-14
20.60000,-14
20.60833,-14
20.61667,-14
20.62500,-14
20.63333,-14
20.64167,-14
20.65000,-14
20.65833,-14
20.66667,-13
20.67500,-13
20.68333,-13
20.69167,-13
20.70000,-14
20.70833,-14
20.71667,-14
20.72500,-14
20.73333,-13
20.74167,-13
20.75000,-13
20.75833,-12
20.76667,-12
20.77500,-12
20.78333,-12
20.79167,-12
20.80000,-12
20.80833,-12
20.81667,-12
20.82500,-12
20.83333,-13
20.84167,-13
20.85000,-13
20.85833,-13
20.86667,-13
20.87500,-13
20.88333,-13
20.89167,-13
20.90000,-13
20.90833,-13
20.91667,-13
20.92500,-13
20.93333,-13
20.94167,-12
20.95000,-12
20.95833,-12
20.96667,-13
20.97500,-13
20.98333,-13
20.99167,-13
21.00000,-13
21.00833,-13
21.01667,-13
21.02500,-12
21.03333,-12
21.04167,-12
21.05000,-13
21.05833,-13
21.06667,-13
21.07500,-14
21.08333,-14
21.09167,-14
21.10000,-14
21.10833,-14
21.11667,-14
21.12500,-14
21.13333,-14
21.14167,-13
21.15000,-13
21.15833,-14
21.16667,-14
21.17500,-13
21.18333,-13
21.19167,-13
21.20000,-13
21.20833,-13
21.21667,-13
21.22500,-14
21.23333,-13
21.24167,-13
21.25000,-13
21.25833,-13
21.26667,-13
21.27500,-13
21.28333,-12
21.29167,-12
21.30000,-12
21.30833,-12
21.31667,-12
21.32500,-12
21.33333,-12
21.34167,-13
21.35000,-13
21.35833,-13
21.36667,-12
21.37500,-12
21.38333,-12
21.39167,-11
21.40000,-11
21.40833,-11
21.41667,-10
21.42500,-10
21.43333,-10
21.44167,-9
21.45000,-9
21.45833,-8
21.46667,-7
21.47500,-6
21.48333,-5
21.49167,-5
21.50000,-4
21.50833,-2
21.51667,-1
21.52500,0
21.53333,2
21.54167,4
21.55000,6
21.55833,9
21.56667,12
21.57500,15
21.58333,18
21.59167,23
21.60000,28
21.60833,33
21.61667,39
21.62500,45
21.63333,52
21.64167,60
21.65000,69
21.65833,79
21.66667,89
21.67500,101
21.68333,115
21.69167,129
21.70000,146
21.70833,164
21.71667,183
21.72500,204
21.73333,227
21.74167,252
21.75000,279
21.75833,308
21.76667,339
21.77500,372
21.78333,408
21.79167,446
21.80000,487
21.80833,529
21.81667,575
21.82500,622
21.83333,672
21.84167,724
21.85000,778
21.85833,833
21.86667,890
21.87500,948
21.88333,1008
21.89167,1069
21.90000,1130
21.90833,1192
21.91667,1254
21.92500,1316
21.93333,1378
21.94167,1439
21.95000,1499
21.95833,1557
21.96667,1613
21.97500,1667
21.98333,1719
21.99167,1768
22.00000,1814
22.00833,1856
22.01667,1895
22.02500,1930
22.03333,1961
22.04167,1987
22.05000,2009
22.05833,2027
22.06667,2040
22.07500,2048
22.08333,2051
22.09167,2049
22.10000,2044
22.10833,2033
22.11667,2018
22.12500,1998
22.13333,1975
22.14167,1947
22.15000,1916
22.15833,1881
22.16667,1843
22.17500,1802
22.18333,1758
22.19167,1712
22.20000,1664
22.20833,1614
22.21667,1562
22.22500,1509
22.23333,1454
22.24167,1399
22.25000,1344
22.25833,1289
22.26667,1233
22.27500,1178
22.28333,1124
22.29167,1070
22.30000,1017
22.30833,965
22.31667,915
22.32500,866
22.33333,818
22.34167,771
22.35000,726
22.35833,683
22.36667,641
22.37500,601
22.38333,563
22.39167,526
22.40000,492
22.40833,459
22.41667,427
22.42500,397
22.43333,369
22.44167,342
22.45000,317
22.45833,294
22.46667,272
22.47500,251
22.48333,232
22.49167,214
22.50000,197
22.50833,182
22.51667,167
22.52500,154
22.53333,142
22.54167,130
22.55000,120
22.55833,110
22.56667,101
22.57500,93
22.58333,85
22.59167,79
22.60000,72
22.60833,66
22.61667,60
22.62500,55
22.63333,51
22.64167,46
22.65000,42
22.65833,39
22.66667,35
22.67500,32
22.68333,30
22.69167,27
22.70000,25
22.70833,23
22.71667,21
22.72500,19
22.73333,17
22.74167,15
22.75000,13
22.75833,11
22.76667,10
22.77500,9
22.78333,7
22.79167,6
22.80000,6
22.80833,5
22.81667,5
22.82500,4
22.83333,3
22.84167,3
22.85000,2
22.85833,2
22.86667,1
22.87500,1
22.88333,0
22.89167,0
22.90000,-0
22.90833,-0
22.91667,-1
22.92500,-2
22.93333,-2
22.94167,-3
22.95000,-3
22.95833,-3
22.96667,-3
22.97500,-3
22.98333,-3
22.99167,-3
23.00000,-4
23.00833,-4
23.01667,-4
23.02500,-4
23.03333,-4
23.04167,-5
23.05000,-5
23.05833,-5
23.06667,-5
23.07500,-5
23.08333,-5
23.09167,-5
23.10000,-5
23.10833,-6
23.11667,-5
23.12500,-5
23.13333,-6
23.14167,-6
23.15000,-6
23.15833,-7
23.16667,-7
23.17500,-7
23.18333,-7
23.19167,-7
23.20000,-7
23.20833,-7
23.21667,-6
23.22500,-6
23.23333,-6
23.24167,-6
23.25000,-7
23.25833,-7
23.26667,-7
23.27500,-7
23.28333,-7
23.29167,-7
23.30000,-7
23.30833,-7
23.31667,-7
23.32500,-8
23.33333,-8
23.34167,-9
23.35000,-9
23.35833,-9
23.36667,-9
23.37500,-9
23.38333,-9
23.39167,-9
23.40000,-9
23.40833,-9
23.41667,-9
23.42500,-9
23.43333,-9
23.44167,-9
23.45000,-9
23.45833,-9
23.46667,-9
23.47500,-10
23.48333,-10
23.49167,-10
23.50000,-10
23.50833,-10
23.51667,-10
23.52500,-10
23.53333,-10
23.54167,-10
23.55000,-10
23.55833,-10
23.56667,-10
23.57500,-10
23.58333,-10
23.59167,-10
23.60000,-11
23.60833,-11
23.61667,-11
23.62500,-11
23.63333,-11
23.64167,-11
23.65000,-11
23.65833,-11
23.66667,-10
23.67500,-10
23.68333,-11
23.69167,-11
23.70000,-11
23.70833,-12
23.71667,-12
23.72500,-12
23.73333,-12
23.74167,-12
23.75000,-12
23.75833,-12
23.76667,-12
23.77500,-12
23.78333,-12
23.79167,-12
23.80000,-12
23.80833,-12
23.81667,-12
23.82500,-12
23.83333,-12
23.84167,-12
23.85000,-12
23.85833,-11
23.86667,-11
23.87500,-12
23.88333,-12
23.89167,-12
23.90000,-12
23.90833,-12
23.91667,-13
23.92500,-13
23.93333,-13
23.94167,-12
23.95000,-12
23.95833,-12
23.96667,-12
23.97500,-13
23.98333,-13
23.99167,-12
24.00000,-12
24.00833,-12
24.01667,-12
24.02500,-13
24.03333,-13
24.04167,-13
24.05000,-13
24.05833,-13
24.06667,-13
24.07500,-13
24.08333,-13
24.09167,-13
24.10000,-13
24.10833,-13
24.11667,-13
24.12500,-14
24.13333,-14
24.14167,-14
24.15000,-14
24.15833,-13
24.16667,-14
24.17500,-14
24.18333,-14
24.19167,-13
24.20000,-13
24.20833,-13
24.21667,-13
24.22500,-13
24.23333,-13
24.24167,-13
24.25000,-13
24.25833,-13
24.26667,-13
24.27500,-13
24.28333,-14
24.29167,-13
24.30000,-13
24.30833,-13
24.31667,-12
24.32500,-12
24.33333,-12
24.34167,-12
24.35000,-12
24.35833,-12
24.36667,-12
24.37500,-11
24.38333,-10
24.39167,-9
24.40000,-9
24.40833,-8
24.41667,-8
24.42500,-7
24.43333,-6
24.44167,-6
24.45000,-5
24.45833,-4
24.46667,-3
24.47500,-1
24.48333,-0
24.49167,2
24.50000,3
24.50833,5
24.51667,7
24.52500,10
24.53333,12
24.54167,15
24.55000,18
24.55833,21
24.56667,25
24.57500,29
24.58333,34
24.59167,39
24.60000,44
24.60833,50
24.61667,56
24.62500,63
24.63333,71
24.64167,79
24.65000,88
24.65833,97
24.66667,107
24.67500,117
24.68333,129
24.69167,141
24.70000,154
24.70833,167
24.71667,181
24.72500,196
24.73333,212
24.74167,228
24.75000,244
24.75833,262
24.76667,280
24.77500,299
24.78333,319
24.79167,339
24.80000,360
24.80833,381
24.81667,401
24.82500,423
24.83333,444
24.84167,465
24.85000,487
24.85833,508
24.86667,530
24.87500,551
24.88333,572
24.89167,593
24.90000,613
24.90833,632
24.91667,651
24.92500,668
24.93333,685
24.94167,701
24.95000,716
24.95833,729
24.96667,741
24.97500,751
24.98333,761
24.99167,768
25.00000,775
25.00833,780
25.01667,784
25.02500,785
25.03333,786
25.04167,784
25.05000,782
25.05833,777
25.06667,772
25.07500,765
25.08333,757
25.09167,747
25.10000,736
25.10833,724
25.11667,710
25.12500,696
25.13333,681
25.14167,664
25.15000,647
25.15833,629
25.16667,611
25.17500,592
25.18333,573
25.19167,554
25.20000,534
25.20833,514
25.21667,494
25.22500,473
25.23333,453
25.24167,433
25.25000,413
25.25833,393
25.26667,374
25.27500,355
25.28333,337
25.29167,319
25.30000,301
25.30833,284
25.31667,268
25.32500,252
25.33333,237
25.34167,222
25.35000,208
25.35833,195
25.36667,182
25.37500,169
25.38333,157
25.39167,146
25.40000,135
25.40833,125
25.41667,115
25.42500,106
25.43333,98
25.44167,90
25.45000,82
25.45833,75
25.46667,68
25.47500,62
25.48333,56
25.49167,51
25.50000,46
25.50833,41
25.51667,37
25.52500,33
25.53333,29
25.54167,26
25.55000,23
25.55833,20
25.56667,17
25.57500,14
25.58333,12
25.59167,10
25.60000,8
25.60833,6
25.61667,5
25.62500,3
25.63333,2
25.64167,1
25.65000,-1
25.65833,-2
25.66667,-3
25.67500,-3
25.68333,-4
25.69167,-5
25.70000,-5
25.70833,-6
25.71667,-6
25.72500,-7
25.73333,-7
25.74167,-8
25.75000,-8
25.75833,-9
25.76667,-9
25.77500,-10
25.78333,-11
25.79167,-11
25.80000,-11
25.80833,-12
25.81667,-12
25.82500,-12
25.83333,-13
25.84167,-13
25.85000,-13
25.85833,-13
25.86667,-13
25.87500,-13
25.88333,-13
25.89167,-13
25.90000,-13
25.90833,-13
25.91667,-13
25.92500,-13
25.93333,-13
25.94167,-13
25.95000,-13
25.95833,-13
25.96667,-13
25.97500,-14
25.98333,-14
25.99167,-14
26.00000,-14
26.00833,-14
26.01667,-14
26.02500,-14
26.03333,-14
26.04167,-14
26.05000,-15
26.05833,-15
26.06667,-15
26.07500,-15
26.08333,-15
26.09167,-16
26.10000,-16
26.10833,-16
26.11667,-16
26.12500,-16
26.13333,-15
26.14167,-15
26.15000,-15
26.15833,-15
26.16667,-16
26.17500,-16
26.18333,-16
26.19167,-16
26.20000,-16
26.20833,-16
26.21667,-16
26.22500,-16
26.23333,-16
26.24167,-16
26.25000,-16
26.25833,-16
26.26667,-16
26.27500,-16
26.28333,-16
26.29167,-16
26.30000,-16
26.30833,-16
26.31667,-16
26.32500,-17
26.33333,-17
26.34167,-17
26.35000,-16
26.35833,-17
26.36667,-17
26.37500,-17
26.38333,-17
26.39167,-17
26.40000,-17
26.40833,-17
26.41667,-17
26.42500,-17
26.43333,-17
26.44167,-17
26.45000,-17
26.45833,-17
26.46667,-17
26.47500,-17
26.48333,-17
26.49167,-17
26.50000,-17
26.50833,-17
26.51667,-17
26.52500,-17
26.53333,-16
26.54167,-17
26.55000,-17
26.55833,-17
26.56667,-17
26.57500,-17
26.58333,-17
26.59167,-17
26.60000,-17
26.60833,-16
26.61667,-16
26.62500,-17
26.63333,-17
26.64167,-17
26.65000,-17
26.65833,-17
26.66667,-16
26.67500,-16
26.68333,-16
26.69167,-16
26.70000,-16
26.70833,-16
26.71667,-16
26.72500,-17
26.73333,-17
26.74167,-17
26.75000,-17
26.75833,-17
26.76667,-17
26.77500,-17
26.78333,-17
26.79167,-17
26.80000,-17
26.80833,-18
26.81667,-18
26.82500,-18
26.83333,-18
26.84167,-18
26.85000,-18
26.85833,-18
26.86667,-18
26.87500,-18
26.88333,-19
26.89167,-19
26.90000,-19
26.90833,-19
26.91667,-19
26.92500,-19
26.93333,-19
26.94167,-19
26.95000,-19
26.95833,-19
26.96667,-19
26.97500,-19
26.98333,-19
26.99167,-18
27.00000,-18
27.00833,-19
27.01667,-19
27.02500,-19
27.03333,-19
27.04167,-19
27.05000,-19
27.05833,-19
27.06667,-19
27.07500,-19
27.08333,-19
27.09167,-20
27.10000,-20
27.10833,-20
27.11667,-20
27.12500,-19
27.13333,-19
27.14167,-19
27.15000,-19
27.15833,-19
27.16667,-19
27.17500,-19
27.18333,-19
27.19167,-19
27.20000,-19
27.20833,-19
27.21667,-19
27.22500,-19
27.23333,-19
27.24167,-19
27.25000,-19
27.25833,-19
27.26667,-18
27.27500,-19
27.28333,-19
27.29167,-20
27.30000,-20
27.30833,-20
27.31667,-20
27.32500,-20
27.33333,-20
27.34167,-20
27.35000,-19
27.35833,-19
27.36667,-20
27.37500,-20
27.38333,-20
27.39167,-20
27.40000,-20
27.40833,-19
27.41667,-19
27.42500,-20
27.43333,-20
27.44167,-20
27.45000,-20
27.45833,-20
27.46667,-20
27.47500,-20
27.48333,-20
27.49167,-20
27.50000,-21
27.50833,-21
27.51667,-21
27.52500,-21
27.53333,-20
27.54167,-20
27.55000,-20
27.55833,-20
27.56667,-20
27.57500,-20
27.58333,-20
27.59167,-20
27.60000,-20
27.60833,-20
27.61667,-20
27.62500,-20
27.63333,-20
27.64167,-21
27.65000,-21
27.65833,-21
27.66667,-21
27.67500,-22
27.68333,-22
27.69167,-21
27.70000,-21
27.70833,-21
27.71667,-21
27.72500,-21
27.73333,-20
27.74167,-20
27.75000,-21
27.75833,-21
27.76667,-21
27.77500,-21
27.78333,-22
27.79167,-23
27.80000,-22
27.80833,-23
27.81667,-23
27.82500,-23
27.83333,-23
27.84167,-23
27.85000,-24
27.85833,-24
27.86667,-24
27.87500,-24
27.88333,-25
27.89167,-25
27.90000,-25
27.90833,-26
27.91667,-27
27.92500,-27
27.93333,-28
27.94167,-28
27.95000,-29
27.95833,-30
27.96667,-31
27.97500,-32
27.98333,-33
27.99167,-34
28.00000,-35
28.00833,-37
28.01667,-38
28.02500,-39
28.03333,-40
28.04167,-41
28.05000,-43
28.05833,-44
28.06667,-46
28.07500,-48
28.08333,-49
28.09167,-51
28.10000,-53
28.10833,-56
28.11667,-58
28.12500,-60
28.13333,-63
28.14167,-66
28.15000,-69
28.15833,-71
28.16667,-74
28.17500,-77
28.18333,-80
28.19167,-83
28.20000,-86
28.20833,-90
28.21667,-93
28.22500,-96
28.23333,-99
28.24167,-102
28.25000,-106
28.25833,-109
28.26667,-113
28.27500,-116
28.28333,-120
28.29167,-123
28.30000,-127
28.30833,-130
28.31667,-133
28.32500,-137
28.33333,-141
28.34167,-144
28.35000,-147
28.35833,-150
28.36667,-153
28.37500,-156
28.38333,-159
28.39167,-162
28.40000,-165
28.40833,-168
28.41667,-171
28.42500,-173
28.43333,-175
28.44167,-176
28.45000,-178
28.45833,-180
28.46667,-182
28.47500,-183
28.48333,-184
28.49167,-185
28.50000,-186
28.50833,-186
28.51667,-187
28.52500,-187
28.53333,-187
28.54167,-187
28.55000,-187
28.55833,-186
28.56667,-186
28.57500,-185
28.58333,-184
28.59167,-183
28.60000,-182
28.60833,-181
28.61667,-180
28.62500,-178
28.63333,-176
28.64167,-174
28.65000,-172
28.65833,-169
28.66667,-167
28.67500,-165
28.68333,-162
28.69167,-160
28.70000,-157
28.70833,-155
28.71667,-152
28.72500,-149
28.73333,-146
28.74167,-143
28.75000,-140
28.75833,-137
28.76667,-134
28.77500,-130
28.78333,-127
28.79167,-124
28.80000,-121
28.80833,-118
28.81667,-116
28.82500,-113
28.83333,-110
28.84167,-107
28.85000,-104
28.85833,-102
28.86667,-99
28.87500,-97
28.88333,-94
28.89167,-91
28.90000,-89
28.90833,-87
28.91667,-84
28.92500,-82
28.93333,-80
28.94167,-77
28.95000,-75
28.95833,-73
28.96667,-71
28.97500,-69
28.98333,-68
28.99167,-66
29.00000,-65
29.00833,-63
29.01667,-62
29.02500,-61
29.03333,-59
29.04167,-58
29.05000,-56
29.05833,-55
29.06667,-54
29.07500,-52
29.08333,-51
29.09167,-50
29.10000,-49
29.10833,-49
29.11667,-48
29.12500,-47
29.13333,-46
29.14167,-45
29.15000,-44
29.15833,-43
29.16667,-43
29.17500,-42
29.18333,-41
29.19167,-41
29.20000,-40
29.20833,-40
29.21667,-39
29.22500,-39
29.23333,-39
29.24167,-39
29.25000,-39
29.25833,-39
29.26667,-39
29.27500,-39
29.28333,-39
29.29167,-38
29.30000,-38
29.30833,-37
29.31667,-37
29.32500,-36
29.33333,-35
29.34167,-35
29.35000,-34
29.35833,-34
29.36667,-34
29.37500,-34
29.38333,-34
29.39167,-34
29.40000,-34
29.40833,-34
29.41667,-34
29.42500,-33
29.43333,-33
29.44167,-33
29.45000,-33
29.45833,-33
29.46667,-33
29.47500,-33
29.48333,-33
29.49167,-33
29.50000,-34
29.50833,-34
29.51667,-34
29.52500,-34
29.53333,-34
29.54167,-34
29.55000,-34
29.55833,-34
29.56667,-34
29.57500,-34
29.58333,-34
29.59167,-35
29.60000,-35
29.60833,-35
29.61667,-35
29.62500,-36
29.63333,-36
29.64167,-37
29.65000,-37
29.65833,-37
29.66667,-38
29.67500,-38
29.68333,-38
29.69167,-38
29.70000,-39
29.70833,-39
29.71667,-40
29.72500,-40
29.73333,-41
29.74167,-42
29.75000,-42
29.75833,-42
29.76667,-43
29.77500,-43
29.78333,-44
29.79167,-44
29.80000,-45
29.80833,-45
29.81667,-45
29.82500,-46
29.83333,-47
29.84167,-48
29.85000,-49
29.85833,-50
29.86667,-51
29.87500,-52
29.88333,-52
29.89167,-53
29.90000,-54
29.90833,-55
29.91667,-56
29.92500,-57
29.93333,-59
29.94167,-60
29.95000,-61
29.95833,-62
29.96667,-63
29.97500,-65
29.98333,-66
29.99167,-67
30.00000,-68
30.00833,-69
30.01667,-70
30.02500,-71
30.03333,-72
30.04167,-73
30.05000,-74
30.05833,-75
30.06667,-76
30.07500,-77
30.08333,-78
30.09167,-79
30.10000,-80
30.10833,-81
30.11667,-82
30.12500,-84
30.13333,-85
30.14167,-86
30.15000,-86
30.15833,-87
30.16667,-88
30.17500,-88
30.18333,-89
30.19167,-90
30.20000,-91
30.20833,-91
30.21667,-92
30.22500,-92
30.23333,-93
30.24167,-93
30.25000,-94
30.25833,-94
30.26667,-94
30.27500,-94
30.28333,-94
30.29167,-94
30.30000,-94
30.30833,-94
30.31667,-94
30.32500,-94
30.33333,-93
30.34167,-93
30.35000,-92
30.35833,-91
30.36667,-91
30.37500,-90
30.38333,-90
30.39167,-89
30.40000,-89
30.40833,-88
30.41667,-87
30.42500,-86
30.43333,-85
30.44167,-84
30.45000,-83
30.45833,-82
30.46667,-82
30.47500,-81
30.48333,-80
30.49167,-79
30.50000,-78
30.50833,-77
30.51667,-76
30.52500,-75
30.53333,-74
30.54167,-72
30.55000,-71
30.55833,-70
30.56667,-69
30.57500,-68
30.58333,-67
30.59167,-66
30.60000,-65
30.60833,-64
30.61667,-63
30.62500,-62
30.63333,-61
30.64167,-60
30.65000,-59
30.65833,-58
30.66667,-57
30.67500,-56
30.68333,-55
30.69167,-54
30.70000,-53
30.70833,-52
30.71667,-51
30.72500,-50
30.73333,-49
30.74167,-49
30.75000,-48
30.75833,-48
30.76667,-48
30.77500,-47
30.78333,-47
30.79167,-46
30.80000,-45
30.80833,-44
30.81667,-43
30.82500,-42
30.83333,-42
30.84167,-42
30.85000,-42
30.85833,-42
30.86667,-41
30.87500,-41
30.88333,-40
30.89167,-40
30.90000,-40
30.90833,-39
30.91667,-39
30.92500,-39
30.93333,-38
30.94167,-38
30.95000,-38
30.95833,-38
30.96667,-38
30.97500,-37
30.98333,-37
30.99167,-37
31.00000,-37
31.00833,-36
31.01667,-36
31.02500,-35
31.03333,-35
31.04167,-35
31.05000,-35
31.05833,-35
31.06667,-34
31.07500,-34
31.08333,-34
31.09167,-33
31.10000,-33
31.10833,-33
31.11667,-33
31.12500,-33
31.13333,-33
31.14167,-33
31.15000,-33
31.15833,-33
31.16667,-33
31.17500,-33
31.18333,-33
31.19167,-33
31.20000,-33
31.20833,-32
31.21667,-32
31.22500,-32
31.23333,-32
31.24167,-32
31.25000,-32
31.25833,-32
31.26667,-31
31.27500,-31
31.28333,-31
31.29167,-31
31.30000,-31
31.30833,-31
31.31667,-31
31.32500,-31
31.33333,-31
31.34167,-31
31.35000,-31
31.35833,-31
31.36667,-31
31.37500,-31
31.38333,-31
31.39167,-31
31.40000,-31
31.40833,-31
31.41667,-31
31.42500,-31
31.43333,-31
31.44167,-31
31.45000,-31
31.45833,-31
31.46667,-30
31.47500,-30
31.48333,-30
31.49167,-30
31.50000,-30
31.50833,-30
31.51667,-30
31.52500,-30
31.53333,-30
31.54167,-30
31.55000,-30
31.55833,-30
31.56667,-30
31.57500,-30
31.58333,-30
31.59167,-29
31.60000,-29
31.60833,-29
31.61667,-29
31.62500,-29
31.63333,-28
31.64167,-28
31.65000,-28
31.65833,-28
31.66667,-28
31.67500,-28
31.68333,-28
31.69167,-29
31.70000,-29
31.70833,-29
31.71667,-28
31.72500,-28
31.73333,-28
31.74167,-28
31.75000,-28
31.75833,-29
31.76667,-29
31.77500,-29
31.78333,-29
31.79167,-29
31.80000,-29
31.80833,-29
31.81667,-29
31.82500,-29
31.83333,-29
31.84167,-29
31.85000,-29
31.85833,-29
31.86667,-29
31.87500,-29
31.88333,-29
31.89167,-29
31.90000,-29
31.90833,-29
31.91667,-29
31.92500,-29
31.93333,-29
31.94167,-29
31.95000,-29
31.95833,-28
31.96667,-28
31.97500,-28
31.98333,-28
31.99167,-28
32.00000,-28
32.00833,-28
32.01667,-28
32.02500,-28
32.03333,-28
32.04167,-29
32.05000,-29
32.05833,-29
32.06667,-29
32.07500,-29
32.08333,-29
32.09167,-29
32.10000,-29
32.10833,-29
32.11667,-28
32.12500,-29
32.13333,-29
32.14167,-29
32.15000,-29
32.15833,-28
32.16667,-28
32.17500,-28
32.18333,-28
32.19167,-29
32.20000,-29
32.20833,-29
32.21667,-29
32.22500,-29
32.23333,-28
32.24167,-28
32.25000,-28
32.25833,-28
32.26667,-28
32.27500,-28
32.28333,-28
32.29167,-27
32.30000,-27
32.30833,-27
32.31667,-27
32.32500,-27
32.33333,-27
32.34167,-27
32.35000,-27
32.35833,-27
32.36667,-27
32.37500,-27
32.38333,-27
32.39167,-28
32.40000,-28
32.40833,-28
32.41667,-28
32.42500,-28
32.43333,-28
32.44167,-28
32.45000,-28
32.45833,-28
32.46667,-28
32.47500,-28
32.48333,-28
32.49167,-28
32.50000,-28
32.50833,-27
32.51667,-27
32.52500,-27
32.53333,-27
32.54167,-27
32.55000,-27
32.55833,-27
32.56667,-27
32.57500,-28
32.58333,-28
32.59167,-28
32.60000,-28
32.60833,-28
32.61667,-28
32.62500,-28
32.63333,-28
32.64167,-28
32.65000,-28
32.65833,-28
32.66667,-28
32.67500,-28
32.68333,-28
32.69167,-28
32.70000,-28
32.70833,-28
32.71667,-28
32.72500,-28
32.73333,-28
32.74167,-28
32.75000,-28
32.75833,-28
32.76667,-28
32.77500,-28
32.78333,-28
32.79167,-28
32.80000,-28
32.80833,-28
32.81667,-28
32.82500,-28
32.83333,-28
32.84167,-28
32.85000,-28
32.85833,-28
32.86667,-28
32.87500,-28
32.88333,-28
32.89167,-27
32.90000,-27
32.90833,-27
32.91667,-27
32.92500,-27
32.93333,-28
32.94167,-28
32.95000,-28
32.95833,-28
32.96667,-27
32.97500,-27
32.98333,-27
32.99167,-27
33.00000,-27
33.00833,-27
33.01667,-28
33.02500,-27
33.03333,-27
33.04167,-27
33.05000,-27
33.05833,-27
33.06667,-27
33.07500,-27
33.08333,-27
33.09167,-27
33.10000,-27
33.10833,-27
33.11667,-27
33.12500,-27
33.13333,-27
33.14167,-27
33.15000,-27
33.15833,-28
33.16667,-28
33.17500,-29
33.18333,-29
33.19167,-29
33.20000,-29
33.20833,-29
33.21667,-29
33.22500,-29
33.23333,-29
33.24167,-29
33.25000,-29
33.25833,-29
33.26667,-29
33.27500,-29
33.28333,-28
33.29167,-28
33.30000,-28
33.30833,-28
33.31667,-28
33.32500,-28
33.33333,-27
33.34167,-27
33.35000,-27
33.35833,-27
33.36667,-27
33.37500,-27
33.38333,-27
33.39167,-27
33.40000,-27
33.40833,-27
33.41667,-27
33.42500,-27
33.43333,-27
33.44167,-27
33.45000,-27
33.45833,-27
33.46667,-27
33.47500,-28
33.48333,-28
33.49167,-28
33.50000,-28
33.50833,-28
33.51667,-28
33.52500,-28
33.53333,-28
33.54167,-27
33.55000,-28
33.55833,-28
33.56667,-28
33.57500,-28
33.58333,-29
33.59167,-28
33.60000,-28
33.60833,-28
33.61667,-27
33.62500,-27
33.63333,-27
33.64167,-28
33.65000,-28
33.65833,-28
33.66667,-27
33.67500,-27
33.68333,-28
33.69167,-28
33.70000,-28
33.70833,-28
33.71667,-28
33.72500,-28
33.73333,-28
33.74167,-28
33.75000,-28
33.75833,-28
33.76667,-28
33.77500,-29
33.78333,-28
33.79167,-28
33.80000,-28
33.80833,-28
33.81667,-28
33.82500,-28
33.83333,-28
33.84167,-28
33.85000,-27
33.85833,-27
33.86667,-27
33.87500,-27
33.88333,-27
33.89167,-27
33.90000,-27
33.90833,-27
33.91667,-27
33.92500,-27
33.93333,-27
33.94167,-27
33.95000,-27
33.95833,-28
33.96667,-28
33.97500,-28
33.98333,-28
33.99167,-28
34.00000,-27
34.00833,-27
34.01667,-27
34.02500,-27
34.03333,-28
34.04167,-27
34.05000,-27
34.05833,-27
34.06667,-27
34.07500,-27
34.08333,-27
34.09167,-27
34.10000,-27
34.10833,-27
34.11667,-27
34.12500,-28
34.13333,-28
34.14167,-28
34.15000,-28
34.15833,-28
34.16667,-28
34.17500,-28
34.18333,-28
34.19167,-28
34.20000,-28
34.20833,-28
34.21667,-27
34.22500,-27
34.23333,-27
34.24167,-27
34.25000,-27
34.25833,-27
34.26667,-27
34.27500,-27
34.28333,-28
34.29167,-28
34.30000,-28
34.30833,-29
34.31667,-29
34.32500,-29
34.33333,-29
34.34167,-29
34.35000,-29
34.35833,-29
34.36667,-28
34.37500,-28
34.38333,-28
34.39167,-28
34.40000,-28
34.40833,-28
34.41667,-28
34.42500,-28
34.43333,-28
34.44167,-28
34.45000,-28
34.45833,-28
34.46667,-28
34.47500,-28
34.48333,-28
34.49167,-28
34.50000,-28
34.50833,-28
34.51667,-28
34.52500,-28
34.53333,-29
34.54167,-29
34.55000,-29
34.55833,-29
34.56667,-29
34.57500,-29
34.58333,-29
34.59167,-29
34.60000,-28
34.60833,-28
34.61667,-28
34.62500,-29
34.63333,-29
34.64167,-29
34.65000,-28
34.65833,-28
34.66667,-28
34.67500,-28
34.68333,-28
34.69167,-28
34.70000,-28
34.70833,-28
34.71667,-28
34.72500,-28
34.73333,-28
34.74167,-28
34.75000,-28
34.75833,-28
34.76667,-28
34.77500,-28
34.78333,-29
34.79167,-29
34.80000,-28
34.80833,-28
34.81667,-29
34.82500,-28
34.83333,-28
34.84167,-28
34.85000,-28
34.85833,-28
34.86667,-28
34.87500,-29
34.88333,-29
34.89167,-29
34.90000,-28
34.90833,-28
34.91667,-28
34.92500,-28
34.93333,-29
34.94167,-29
34.95000,-28
34.95833,-28
34.96667,-29
34.97500,-29
34.98333,-29
34.99167,-29
35.00000,-28
35.00833,-28
35.01667,-28
35.02500,-28
35.03333,-28
35.04167,-28
35.05000,-28
35.05833,-28
35.06667,-28
35.07500,-28
35.08333,-28
35.09167,-28
35.10000,-29
35.10833,-29
35.11667,-29
35.12500,-29
35.13333,-29
35.14167,-29
35.15000,-29
35.15833,-28
35.16667,-28
35.17500,-28
35.18333,-28
35.19167,-28
35.20000,-28
35.20833,-28
35.21667,-29
35.22500,-29
35.23333,-29
35.24167,-29
35.25000,-29
35.25833,-28
35.26667,-28
35.27500,-28
35.28333,-28
35.29167,-28
35.30000,-29
35.30833,-29
35.31667,-29
35.32500,-29
35.33333,-29
35.34167,-29
35.35000,-29
35.35833,-29
35.36667,-29
35.37500,-29
35.38333,-30
35.39167,-30
35.40000,-30
35.40833,-30
35.41667,-30
35.42500,-30
35.43333,-30
35.44167,-30
35.45000,-30
35.45833,-29
35.46667,-29
35.47500,-29
35.48333,-29
35.49167,-29
35.50000,-29
35.50833,-29
35.51667,-29
35.52500,-29
35.53333,-29
35.54167,-29
35.55000,-28
35.55833,-28
35.56667,-28
35.57500,-28
35.58333,-28
35.59167,-28
35.60000,-28
35.60833,-28
35.61667,-29
35.62500,-28
35.63333,-28
35.64167,-29
35.65000,-29
35.65833,-29
35.66667,-29
35.67500,-29
35.68333,-29
35.69167,-29
35.70000,-30
35.70833,-30
35.71667,-30
35.72500,-30
35.73333,-31
35.74167,-30
35.75000,-30
35.75833,-30
35.76667,-30
35.77500,-30
35.78333,-29
35.79167,-29
35.80000,-29
35.80833,-29
35.81667,-29
35.82500,-29
35.83333,-29
35.84167,-29
35.85000,-29
35.85833,-29
35.86667,-30
35.87500,-30
35.88333,-30
35.89167,-30
35.90000,-29
35.90833,-29
35.91667,-29
35.92500,-29
35.93333,-29
35.94167,-29
35.95000,-29
35.95833,-28
35.96667,-29
35.97500,-29
35.98333,-29
35.99167,-29
36.00000,-29
36.00833,-29
36.01667,-28
36.02500,-28
36.03333,-28
36.04167,-28
36.05000,-28
36.05833,-28
36.06667,-28
36.07500,-28
36.08333,-29
36.09167,-29
36.10000,-29
36.10833,-29
36.11667,-29
36.12500,-29
36.13333,-29
36.14167,-29
36.15000,-29
36.15833,-29
36.16667,-29
36.17500,-30
36.18333,-30
36.19167,-30
36.20000,-30
36.20833,-30
36.21667,-30
36.22500,-30
36.23333,-30
36.24167,-30
36.25000,-30
36.25833,-30
36.26667,-30
36.27500,-30
36.28333,-30
36.29167,-30
36.30000,-30
36.30833,-30
36.31667,-30
36.32500,-30
36.33333,-30
36.34167,-30
36.35000,-30
36.35833,-30
36.36667,-30
36.37500,-30
36.38333,-30
36.39167,-30
36.40000,-30
36.40833,-31
36.41667,-31
36.42500,-31
36.43333,-31
36.44167,-31
36.45000,-32
36.45833,-31
36.46667,-31
36.47500,-31
36.48333,-31
36.49167,-30
36.50000,-30
36.50833,-31
36.51667,-31
36.52500,-31
36.53333,-30
36.54167,-30
36.55000,-30
36.55833,-29
36.56667,-29
36.57500,-29
36.58333,-30
36.59167,-30
36.60000,-30
36.60833,-30
36.61667,-30
36.62500,-30
36.63333,-30
36.64167,-30
36.65000,-30
36.65833,-30
36.66667,-30
36.67500,-30
36.68333,-30
36.69167,-30
36.70000,-30
36.70833,-30
36.71667,-30
36.72500,-30
36.73333,-30
36.74167,-29
36.75000,-29
36.75833,-29
36.76667,-29
36.77500,-29
36.78333,-29
36.79167,-29
36.80000,-29
36.80833,-29
36.81667,-29
36.82500,-30
36.83333,-30
36.84167,-30
36.85000,-30
36.85833,-30
36.86667,-30
36.87500,-30
36.88333,-29
36.89167,-29
36.90000,-30
36.90833,-30
36.91667,-30
36.92500,-30
36.93333,-30
36.94167,-30
36.95000,-30
36.95833,-30
36.96667,-30
36.97500,-30
36.98333,-29
36.99167,-29
37.00000,-29
37.00833,-29
37.01667,-29
37.02500,-29
37.03333,-29
37.04167,-29
37.05000,-29
37.05833,-30
37.06667,-30
37.07500,-30
37.08333,-30
37.09167,-30
37.10000,-30
37.10833,-30
37.11667,-30
37.12500,-30
37.13333,-30
37.14167,-29
37.15000,-29
37.15833,-29
37.16667,-29
37.17500,-28
37.18333,-28
37.19167,-29
37.20000,-29
37.20833,-29
37.21667,-29
37.22500,-30
37.23333,-30
37.24167,-30
37.25000,-30
37.25833,-29
37.26667,-29
37.27500,-29
37.28333,-29
37.29167,-30
37.30000,-30
37.30833,-30
37.31667,-30
37.32500,-30
37.33333,-30
37.34167,-30
37.35000,-29
37.35833,-30
37.36667,-30
37.37500,-30
37.38333,-30
37.39167,-30
37.40000,-30
37.40833,-30
37.41667,-31
37.42500,-31
37.43333,-31
37.44167,-31
37.45000,-31
37.45833,-31
37.46667,-31
37.47500,-30
37.48333,-30
37.49167,-30
37.50000,-30
37.50833,-30
37.51667,-29
37.52500,-29
37.53333,-30
37.54167,-30
37.55000,-31
37.55833,-31
37.56667,-31
37.57500,-31
37.58333,-31
37.59167,-31
37.60000,-31
37.60833,-31
37.61667,-31
37.62500,-31
37.63333,-31
37.64167,-31
37.65000,-31
37.65833,-32
37.66667,-32
37.67500,-32
37.68333,-32
37.69167,-32
37.70000,-32
37.70833,-32
37.71667,-31
37.72500,-31
37.73333,-31
37.74167,-31
37.75000,-31
37.75833,-32
37.76667,-32
37.77500,-32
37.78333,-32
37.79167,-32
37.80000,-32
37.80833,-32
37.81667,-31
37.82500,-31
37.83333,-31
37.84167,-31
37.85000,-32
37.85833,-32
37.86667,-32
37.87500,-32
37.88333,-32
37.89167,-32
37.90000,-31
37.90833,-31
37.91667,-31
37.92500,-31
37.93333,-31
37.94167,-31
37.95000,-31
37.95833,-31
37.96667,-31
37.97500,-31
37.98333,-31
37.99167,-31
38.00000,-31
38.00833,-30
38.01667,-30
38.02500,-30
38.03333,-30
38.04167,-30
38.05000,-30
38.05833,-30
38.06667,-30
38.07500,-31
38.08333,-31
38.09167,-31
38.10000,-31
38.10833,-31
38.11667,-31
38.12500,-31
38.13333,-31
38.14167,-31
38.15000,-31
38.15833,-31
38.16667,-31
38.17500,-31
38.18333,-31
38.19167,-30
38.20000,-30
38.20833,-30
38.21667,-30
38.22500,-30
38.23333,-30
38.24167,-30
38.25000,-30
38.25833,-30
38.26667,-30
38.27500,-30
38.28333,-30
38.29167,-30
38.30000,-30
38.30833,-30
38.31667,-29
38.32500,-29
38.33333,-29
38.34167,-29
38.35000,-30
38.35833,-29
38.36667,-29
38.37500,-29
38.38333,-29
38.39167,-29
38.40000,-30
38.40833,-30
38.41667,-30
38.42500,-30
38.43333,-30
38.44167,-30
38.45000,-29
38.45833,-29
38.46667,-29
38.47500,-29
38.48333,-29
38.49167,-28
38.50000,-29
38.50833,-29
38.51667,-29
38.52500,-29
38.53333,-30
38.54167,-30
38.55000,-29
38.55833,-29
38.56667,-29
38.57500,-29
38.58333,-29
38.59167,-29
38.60000,-29
38.60833,-29
38.61667,-29
38.62500,-29
38.63333,-29
38.64167,-29
38.65000,-29
38.65833,-30
38.66667,-29
38.67500,-29
38.68333,-29
38.69167,-29
38.70000,-29
38.70833,-29
38.71667,-28
38.72500,-28
38.73333,-28
38.74167,-28
38.75000,-29
38.75833,-28
38.76667,-28
38.77500,-28
38.78333,-28
38.79167,-28
38.80000,-29
38.80833,-29
38.81667,-29
38.82500,-29
38.83333,-29
38.84167,-29
38.85000,-29
38.85833,-29
38.86667,-29
38.87500,-28
38.88333,-28
38.89167,-29
38.90000,-29
38.90833,-29
38.91667,-29
38.92500,-29
38.93333,-29
38.94167,-29
38.95000,-29
38.95833,-29
38.96667,-29
38.97500,-29
38.98333,-28
38.99167,-28
39.00000,-28
39.00833,-28
39.01667,-29
39.02500,-29
39.03333,-29
39.04167,-29
39.05000,-30
39.05833,-30
39.06667,-30
39.07500,-30
39.08333,-30
39.09167,-30
39.10000,-30
39.10833,-30
39.11667,-30
39.12500,-30
39.13333,-30
39.14167,-30
39.15000,-30
39.15833,-30
39.16667,-30
39.17500,-30
39.18333,-30
39.19167,-30
39.20000,-30
39.20833,-30
39.21667,-30
39.22500,-30
39.23333,-30
39.24167,-30
39.25000,-31
39.25833,-31
39.26667,-31
39.27500,-31
39.28333,-31
39.29167,-31
39.30000,-32
39.30833,-32
39.31667,-32
39.32500,-32
39.33333,-32
39.34167,-32
39.35000,-32
39.35833,-32
39.36667,-32
39.37500,-32
39.38333,-32
39.39167,-32
39.40000,-33
39.40833,-33
39.41667,-33
39.42500,-32
39.43333,-32
39.44167,-32
39.45000,-32
39.45833,-32
39.46667,-32
39.47500,-32
39.48333,-32
39.49167,-31
39.50000,-31
39.50833,-31
39.51667,-32
39.52500,-32
39.53333,-32
39.54167,-32
39.55000,-32
39.55833,-32
39.56667,-32
39.57500,-32
39.58333,-32
39.59167,-32
39.60000,-32
39.60833,-32
39.61667,-32
39.62500,-32
39.63333,-32
39.64167,-31
39.65000,-31
39.65833,-31
39.66667,-31
39.67500,-31
39.68333,-31
39.69167,-32
39.70000,-32
39.70833,-32
39.71667,-32
39.72500,-32
39.73333,-32
39.74167,-31
39.75000,-32
39.75833,-32
39.76667,-32
39.77500,-31
39.78333,-31
39.79167,-31
39.80000,-31
39.80833,-32
39.81667,-32
39.82500,-33
39.83333,-33
39.84167,-33
39.85000,-33
39.85833,-33
39.86667,-33
39.87500,-33
39.88333,-33
39.89167,-33
39.90000,-33
39.90833,-33
39.91667,-33
39.92500,-33
39.93333,-32
39.94167,-33
39.95000,-33
39.95833,-33
39.96667,-33
39.97500,-33
39.98333,-33
39.99167,-33
40.00000,-33

[Fraction Collection Report]
# of Fractions,0
