[Header]
Application Name,LabSolutions
Version,5.97 SP1
Data File Name,C:\Users\cremerlab\Desktop\griffin\2021-03-26_calibration\2021-03-26_calibration_3262021_007_007.lcd
Output Date,3/26/2021
Output Time,10:26:39 PM

[File Information]
Type,Data File
Generated,3/26/2021 9:46:19 PM
Generated by,System Administrator
Modified,3/26/2021 10:26:39 PM
Modified by,System Administrator

[Sample Information]
Operator Name,System Administrator
Acquired,3/26/2021 9:46:38 PM
Sample Type,1:Standard
Level,7
Sample Name,2021-03-26_calibration_03mM
Sample ID,007
ISTD Amount1,1
ISTD Amount2,1
ISTD Amount3,1
ISTD Amount4,1
ISTD Amount5,1
ISTD Amount6,1
ISTD Amount7,1
ISTD Amount8,1
ISTD Amount9,1
ISTD Amount10,1
ISTD Amount11,1
ISTD Amount12,1
ISTD Amount13,1
ISTD Amount14,1
ISTD Amount15,1
ISTD Amount16,1
ISTD Amount17,1
ISTD Amount18,1
ISTD Amount19,1
ISTD Amount20,1
ISTD Amount21,1
ISTD Amount22,1
ISTD Amount23,1
ISTD Amount24,1
ISTD Amount25,1
ISTD Amount26,1
ISTD Amount27,1
ISTD Amount28,1
ISTD Amount29,1
ISTD Amount30,1
ISTD Amount31,1
ISTD Amount32,1
Sample Amount,1
Dilution Factor,1
Vial#,7
Injection Volume,20

[Original Files]
Data File,C:\Users\cremerlab\Desktop\griffin\2021-03-26_calibration\2021-03-26_calibration_3262021_007_007.lcd
Method File,C:\LabSolutions\Data\Project1\organicacidsetc2.lcm
Batch File,C:\Users\cremerlab\Desktop\griffin\2021-03-26_calibration\2021-03-26_calibration.lcb
Report Format File,c:\LabSolutions\System\DEFAULT.lsr

[File Description]


[Configuration]
Instrument Name,HPLC-PC-Instrument1
Instrument #,1
Line #,1
# of Detectors,2
Detector ID,Detector A,Detector B
Detector Name,Detector A,Detector B
# of Channels,1,1

[LC Chromatogram(Detector B-Ch1)]
Interval(msec),500
# of Points,4801
Start Time(min),0.000
End Time(min),40.000
Intensity Units,mV
Intensity Multiplier,0.001
R.Time (min),Intensity
0.00000,-0
0.00833,-0
0.01667,0
0.02500,0
0.03333,-0
0.04167,-0
0.05000,-0
0.05833,-1
0.06667,-1
0.07500,-1
0.08333,-1
0.09167,-0
0.10000,-0
0.10833,-0
0.11667,-0
0.12500,-0
0.13333,0
0.14167,0
0.15000,-0
0.15833,-1
0.16667,-1
0.17500,-1
0.18333,-1
0.19167,-1
0.20000,-1
0.20833,-1
0.21667,-1
0.22500,-1
0.23333,-1
0.24167,-1
0.25000,-1
0.25833,-1
0.26667,-0
0.27500,-0
0.28333,-0
0.29167,-1
0.30000,-1
0.30833,-1
0.31667,-1
0.32500,-1
0.33333,-1
0.34167,-1
0.35000,-1
0.35833,-1
0.36667,-1
0.37500,-1
0.38333,-0
0.39167,-0
0.40000,-0
0.40833,0
0.41667,0
0.42500,-0
0.43333,-1
0.44167,-1
0.45000,-1
0.45833,-1
0.46667,-1
0.47500,-1
0.48333,-2
0.49167,-2
0.50000,-2
0.50833,-2
0.51667,-1
0.52500,-1
0.53333,-1
0.54167,-1
0.55000,-1
0.55833,-1
0.56667,-0
0.57500,-0
0.58333,-0
0.59167,-0
0.60000,-0
0.60833,-0
0.61667,-1
0.62500,-1
0.63333,-1
0.64167,-1
0.65000,-2
0.65833,-2
0.66667,-2
0.67500,-2
0.68333,-2
0.69167,-3
0.70000,-3
0.70833,-3
0.71667,-3
0.72500,-3
0.73333,-3
0.74167,-2
0.75000,-2
0.75833,-2
0.76667,-2
0.77500,-2
0.78333,-2
0.79167,-2
0.80000,-2
0.80833,-2
0.81667,-2
0.82500,-2
0.83333,-2
0.84167,-2
0.85000,-2
0.85833,-2
0.86667,-2
0.87500,-2
0.88333,-2
0.89167,-2
0.90000,-2
0.90833,-2
0.91667,-2
0.92500,-2
0.93333,-2
0.94167,-2
0.95000,-2
0.95833,-2
0.96667,-2
0.97500,-2
0.98333,-2
0.99167,-2
1.00000,-2
1.00833,-2
1.01667,-2
1.02500,-2
1.03333,-2
1.04167,-2
1.05000,-2
1.05833,-2
1.06667,-2
1.07500,-1
1.08333,-1
1.09167,-2
1.10000,-2
1.10833,-2
1.11667,-2
1.12500,-2
1.13333,-2
1.14167,-2
1.15000,-2
1.15833,-1
1.16667,-1
1.17500,-1
1.18333,-1
1.19167,-1
1.20000,-1
1.20833,-1
1.21667,-1
1.22500,-1
1.23333,-1
1.24167,-1
1.25000,-1
1.25833,-2
1.26667,-2
1.27500,-2
1.28333,-2
1.29167,-2
1.30000,-3
1.30833,-3
1.31667,-2
1.32500,-2
1.33333,-2
1.34167,-2
1.35000,-2
1.35833,-2
1.36667,-2
1.37500,-2
1.38333,-2
1.39167,-2
1.40000,-1
1.40833,-1
1.41667,-1
1.42500,-1
1.43333,-1
1.44167,-2
1.45000,-2
1.45833,-2
1.46667,-2
1.47500,-2
1.48333,-2
1.49167,-2
1.50000,-1
1.50833,-2
1.51667,-2
1.52500,-2
1.53333,-2
1.54167,-1
1.55000,-1
1.55833,-1
1.56667,-1
1.57500,-2
1.58333,-2
1.59167,-2
1.60000,-2
1.60833,-2
1.61667,-2
1.62500,-3
1.63333,-3
1.64167,-3
1.65000,-2
1.65833,-2
1.66667,-1
1.67500,-1
1.68333,-1
1.69167,-2
1.70000,-2
1.70833,-2
1.71667,-2
1.72500,-2
1.73333,-2
1.74167,-2
1.75000,-2
1.75833,-2
1.76667,-2
1.77500,-2
1.78333,-2
1.79167,-2
1.80000,-2
1.80833,-2
1.81667,-2
1.82500,-2
1.83333,-1
1.84167,-1
1.85000,-1
1.85833,-1
1.86667,-1
1.87500,-1
1.88333,-1
1.89167,-1
1.90000,-2
1.90833,-2
1.91667,-2
1.92500,-2
1.93333,-2
1.94167,-2
1.95000,-2
1.95833,-2
1.96667,-2
1.97500,-3
1.98333,-3
1.99167,-2
2.00000,-2
2.00833,-1
2.01667,-1
2.02500,-1
2.03333,-1
2.04167,-2
2.05000,-2
2.05833,-2
2.06667,-2
2.07500,-2
2.08333,-2
2.09167,-3
2.10000,-3
2.10833,-3
2.11667,-3
2.12500,-3
2.13333,-2
2.14167,-2
2.15000,-2
2.15833,-2
2.16667,-2
2.17500,-2
2.18333,-2
2.19167,-2
2.20000,-2
2.20833,-2
2.21667,-2
2.22500,-2
2.23333,-1
2.24167,-1
2.25000,-1
2.25833,-1
2.26667,-1
2.27500,-2
2.28333,-2
2.29167,-2
2.30000,-2
2.30833,-1
2.31667,-1
2.32500,-1
2.33333,-2
2.34167,-2
2.35000,-2
2.35833,-2
2.36667,-2
2.37500,-2
2.38333,-2
2.39167,-2
2.40000,-2
2.40833,-2
2.41667,-2
2.42500,-2
2.43333,-2
2.44167,-2
2.45000,-2
2.45833,-2
2.46667,-2
2.47500,-2
2.48333,-2
2.49167,-3
2.50000,-3
2.50833,-3
2.51667,-2
2.52500,-2
2.53333,-2
2.54167,-1
2.55000,-1
2.55833,-1
2.56667,-1
2.57500,-2
2.58333,-2
2.59167,-2
2.60000,-2
2.60833,-3
2.61667,-3
2.62500,-3
2.63333,-3
2.64167,-3
2.65000,-3
2.65833,-3
2.66667,-3
2.67500,-3
2.68333,-3
2.69167,-3
2.70000,-3
2.70833,-3
2.71667,-3
2.72500,-3
2.73333,-3
2.74167,-3
2.75000,-3
2.75833,-3
2.76667,-3
2.77500,-3
2.78333,-3
2.79167,-3
2.80000,-2
2.80833,-2
2.81667,-2
2.82500,-2
2.83333,-2
2.84167,-2
2.85000,-2
2.85833,-3
2.86667,-3
2.87500,-3
2.88333,-3
2.89167,-3
2.90000,-4
2.90833,-4
2.91667,-4
2.92500,-4
2.93333,-4
2.94167,-4
2.95000,-4
2.95833,-4
2.96667,-4
2.97500,-4
2.98333,-4
2.99167,-3
3.00000,-3
3.00833,-3
3.01667,-3
3.02500,-3
3.03333,-3
3.04167,-3
3.05000,-4
3.05833,-3
3.06667,-3
3.07500,-4
3.08333,-4
3.09167,-4
3.10000,-4
3.10833,-4
3.11667,-4
3.12500,-4
3.13333,-4
3.14167,-4
3.15000,-4
3.15833,-4
3.16667,-4
3.17500,-4
3.18333,-4
3.19167,-5
3.20000,-5
3.20833,-5
3.21667,-5
3.22500,-5
3.23333,-5
3.24167,-5
3.25000,-5
3.25833,-5
3.26667,-5
3.27500,-4
3.28333,-5
3.29167,-5
3.30000,-4
3.30833,-4
3.31667,-4
3.32500,-4
3.33333,-4
3.34167,-4
3.35000,-3
3.35833,-3
3.36667,-3
3.37500,-3
3.38333,-3
3.39167,-3
3.40000,-3
3.40833,-3
3.41667,-3
3.42500,-3
3.43333,-3
3.44167,-3
3.45000,-3
3.45833,-4
3.46667,-4
3.47500,-4
3.48333,-4
3.49167,-4
3.50000,-4
3.50833,-4
3.51667,-4
3.52500,-4
3.53333,-4
3.54167,-4
3.55000,-4
3.55833,-4
3.56667,-4
3.57500,-4
3.58333,-4
3.59167,-4
3.60000,-4
3.60833,-4
3.61667,-5
3.62500,-5
3.63333,-4
3.64167,-4
3.65000,-4
3.65833,-4
3.66667,-4
3.67500,-4
3.68333,-4
3.69167,-4
3.70000,-4
3.70833,-4
3.71667,-4
3.72500,-4
3.73333,-4
3.74167,-4
3.75000,-5
3.75833,-5
3.76667,-5
3.77500,-5
3.78333,-5
3.79167,-5
3.80000,-5
3.80833,-5
3.81667,-5
3.82500,-6
3.83333,-5
3.84167,-5
3.85000,-5
3.85833,-5
3.86667,-5
3.87500,-5
3.88333,-4
3.89167,-4
3.90000,-4
3.90833,-4
3.91667,-4
3.92500,-4
3.93333,-4
3.94167,-4
3.95000,-4
3.95833,-4
3.96667,-4
3.97500,-4
3.98333,-4
3.99167,-4
4.00000,-4
4.00833,-4
4.01667,-4
4.02500,-4
4.03333,-4
4.04167,-4
4.05000,-4
4.05833,-4
4.06667,-4
4.07500,-4
4.08333,-5
4.09167,-5
4.10000,-5
4.10833,-5
4.11667,-5
4.12500,-5
4.13333,-5
4.14167,-5
4.15000,-5
4.15833,-5
4.16667,-5
4.17500,-5
4.18333,-5
4.19167,-5
4.20000,-5
4.20833,-5
4.21667,-5
4.22500,-5
4.23333,-5
4.24167,-5
4.25000,-5
4.25833,-5
4.26667,-5
4.27500,-5
4.28333,-5
4.29167,-5
4.30000,-5
4.30833,-5
4.31667,-6
4.32500,-6
4.33333,-6
4.34167,-6
4.35000,-5
4.35833,-5
4.36667,-5
4.37500,-5
4.38333,-5
4.39167,-6
4.40000,-5
4.40833,-5
4.41667,-5
4.42500,-5
4.43333,-5
4.44167,-5
4.45000,-5
4.45833,-5
4.46667,-5
4.47500,-4
4.48333,-4
4.49167,-4
4.50000,-4
4.50833,-4
4.51667,-4
4.52500,-4
4.53333,-5
4.54167,-5
4.55000,-5
4.55833,-5
4.56667,-5
4.57500,-5
4.58333,-5
4.59167,-5
4.60000,-5
4.60833,-5
4.61667,-5
4.62500,-5
4.63333,-5
4.64167,-6
4.65000,-6
4.65833,-6
4.66667,-6
4.67500,-6
4.68333,-6
4.69167,-6
4.70000,-5
4.70833,-5
4.71667,-5
4.72500,-5
4.73333,-5
4.74167,-5
4.75000,-4
4.75833,-4
4.76667,-4
4.77500,-4
4.78333,-4
4.79167,-4
4.80000,-4
4.80833,-5
4.81667,-5
4.82500,-5
4.83333,-5
4.84167,-5
4.85000,-5
4.85833,-5
4.86667,-5
4.87500,-5
4.88333,-5
4.89167,-5
4.90000,-5
4.90833,-5
4.91667,-5
4.92500,-5
4.93333,-5
4.94167,-6
4.95000,-5
4.95833,-5
4.96667,-5
4.97500,-5
4.98333,-5
4.99167,-4
5.00000,-4
5.00833,-4
5.01667,-5
5.02500,-4
5.03333,-4
5.04167,-5
5.05000,-5
5.05833,-5
5.06667,-5
5.07500,-5
5.08333,-5
5.09167,-5
5.10000,-5
5.10833,-5
5.11667,-5
5.12500,-5
5.13333,-5
5.14167,-5
5.15000,-5
5.15833,-6
5.16667,-5
5.17500,-5
5.18333,-5
5.19167,-5
5.20000,-5
5.20833,-5
5.21667,-5
5.22500,-5
5.23333,-5
5.24167,-5
5.25000,-5
5.25833,-5
5.26667,-5
5.27500,-5
5.28333,-5
5.29167,-5
5.30000,-5
5.30833,-6
5.31667,-6
5.32500,-6
5.33333,-6
5.34167,-6
5.35000,-6
5.35833,-6
5.36667,-6
5.37500,-6
5.38333,-6
5.39167,-6
5.40000,-6
5.40833,-6
5.41667,-6
5.42500,-6
5.43333,-6
5.44167,-6
5.45000,-6
5.45833,-6
5.46667,-6
5.47500,-6
5.48333,-6
5.49167,-6
5.50000,-6
5.50833,-6
5.51667,-6
5.52500,-6
5.53333,-6
5.54167,-6
5.55000,-6
5.55833,-6
5.56667,-6
5.57500,-6
5.58333,-6
5.59167,-6
5.60000,-6
5.60833,-6
5.61667,-6
5.62500,-6
5.63333,-6
5.64167,-6
5.65000,-6
5.65833,-6
5.66667,-6
5.67500,-7
5.68333,-7
5.69167,-7
5.70000,-7
5.70833,-7
5.71667,-7
5.72500,-7
5.73333,-7
5.74167,-7
5.75000,-6
5.75833,-6
5.76667,-6
5.77500,-6
5.78333,-6
5.79167,-6
5.80000,-6
5.80833,-6
5.81667,-6
5.82500,-6
5.83333,-6
5.84167,-6
5.85000,-6
5.85833,-6
5.86667,-6
5.87500,-6
5.88333,-6
5.89167,-6
5.90000,-6
5.90833,-6
5.91667,-7
5.92500,-6
5.93333,-6
5.94167,-6
5.95000,-6
5.95833,-6
5.96667,-6
5.97500,-6
5.98333,-6
5.99167,-6
6.00000,-6
6.00833,-6
6.01667,-6
6.02500,-6
6.03333,-6
6.04167,-7
6.05000,-7
6.05833,-7
6.06667,-7
6.07500,-7
6.08333,-7
6.09167,-7
6.10000,-7
6.10833,-7
6.11667,-7
6.12500,-7
6.13333,-7
6.14167,-7
6.15000,-7
6.15833,-7
6.16667,-7
6.17500,-7
6.18333,-7
6.19167,-7
6.20000,-7
6.20833,-7
6.21667,-7
6.22500,-7
6.23333,-8
6.24167,-8
6.25000,-8
6.25833,-8
6.26667,-8
6.27500,-8
6.28333,-8
6.29167,-8
6.30000,-8
6.30833,-8
6.31667,-7
6.32500,-7
6.33333,-8
6.34167,-8
6.35000,-8
6.35833,-8
6.36667,-8
6.37500,-8
6.38333,-8
6.39167,-8
6.40000,-8
6.40833,-7
6.41667,-7
6.42500,-7
6.43333,-7
6.44167,-8
6.45000,-8
6.45833,-8
6.46667,-8
6.47500,-8
6.48333,-7
6.49167,-8
6.50000,-8
6.50833,-8
6.51667,-8
6.52500,-8
6.53333,-7
6.54167,-7
6.55000,-7
6.55833,-7
6.56667,-7
6.57500,-7
6.58333,-7
6.59167,-7
6.60000,-7
6.60833,-7
6.61667,-7
6.62500,-7
6.63333,-7
6.64167,-7
6.65000,-7
6.65833,-7
6.66667,-7
6.67500,-6
6.68333,-6
6.69167,-6
6.70000,-7
6.70833,-7
6.71667,-7
6.72500,-7
6.73333,-7
6.74167,-6
6.75000,-6
6.75833,-6
6.76667,-6
6.77500,-6
6.78333,-6
6.79167,-6
6.80000,-6
6.80833,-7
6.81667,-6
6.82500,-6
6.83333,-6
6.84167,-6
6.85000,-6
6.85833,-6
6.86667,-7
6.87500,-6
6.88333,-6
6.89167,-6
6.90000,-6
6.90833,-7
6.91667,-7
6.92500,-7
6.93333,-7
6.94167,-7
6.95000,-7
6.95833,-7
6.96667,-7
6.97500,-7
6.98333,-7
6.99167,-7
7.00000,-7
7.00833,-7
7.01667,-7
7.02500,-7
7.03333,-7
7.04167,-7
7.05000,-7
7.05833,-7
7.06667,-6
7.07500,-6
7.08333,-6
7.09167,-6
7.10000,-6
7.10833,-6
7.11667,-6
7.12500,-6
7.13333,-6
7.14167,-6
7.15000,-6
7.15833,-6
7.16667,-6
7.17500,-6
7.18333,-6
7.19167,-6
7.20000,-6
7.20833,-6
7.21667,-5
7.22500,-5
7.23333,-6
7.24167,-6
7.25000,-6
7.25833,-6
7.26667,-6
7.27500,-6
7.28333,-6
7.29167,-6
7.30000,-6
7.30833,-6
7.31667,-6
7.32500,-6
7.33333,-6
7.34167,-6
7.35000,-6
7.35833,-6
7.36667,-6
7.37500,-6
7.38333,-6
7.39167,-6
7.40000,-6
7.40833,-6
7.41667,-6
7.42500,-5
7.43333,-5
7.44167,-5
7.45000,-5
7.45833,-5
7.46667,-5
7.47500,-5
7.48333,-6
7.49167,-6
7.50000,-7
7.50833,-7
7.51667,-7
7.52500,-7
7.53333,-7
7.54167,-6
7.55000,-6
7.55833,-6
7.56667,-5
7.57500,-6
7.58333,-6
7.59167,-6
7.60000,-6
7.60833,-6
7.61667,-5
7.62500,-5
7.63333,-6
7.64167,-6
7.65000,-6
7.65833,-5
7.66667,-5
7.67500,-5
7.68333,-5
7.69167,-5
7.70000,-6
7.70833,-6
7.71667,-6
7.72500,-6
7.73333,-6
7.74167,-6
7.75000,-6
7.75833,-6
7.76667,-6
7.77500,-6
7.78333,-6
7.79167,-6
7.80000,-6
7.80833,-6
7.81667,-6
7.82500,-6
7.83333,-6
7.84167,-6
7.85000,-7
7.85833,-6
7.86667,-6
7.87500,-7
7.88333,-7
7.89167,-6
7.90000,-6
7.90833,-7
7.91667,-7
7.92500,-7
7.93333,-7
7.94167,-7
7.95000,-6
7.95833,-6
7.96667,-6
7.97500,-7
7.98333,-7
7.99167,-7
8.00000,-7
8.00833,-7
8.01667,-7
8.02500,-7
8.03333,-7
8.04167,-7
8.05000,-7
8.05833,-7
8.06667,-7
8.07500,-6
8.08333,-6
8.09167,-6
8.10000,-6
8.10833,-6
8.11667,-6
8.12500,-6
8.13333,-6
8.14167,-6
8.15000,-6
8.15833,-7
8.16667,-7
8.17500,-7
8.18333,-7
8.19167,-7
8.20000,-7
8.20833,-7
8.21667,-7
8.22500,-8
8.23333,-8
8.24167,-7
8.25000,-7
8.25833,-8
8.26667,-8
8.27500,-8
8.28333,-7
8.29167,-7
8.30000,-7
8.30833,-7
8.31667,-8
8.32500,-8
8.33333,-7
8.34167,-7
8.35000,-7
8.35833,-7
8.36667,-7
8.37500,-7
8.38333,-7
8.39167,-8
8.40000,-8
8.40833,-8
8.41667,-8
8.42500,-8
8.43333,-8
8.44167,-8
8.45000,-8
8.45833,-8
8.46667,-8
8.47500,-7
8.48333,-7
8.49167,-7
8.50000,-7
8.50833,-7
8.51667,-7
8.52500,-7
8.53333,-7
8.54167,-8
8.55000,-8
8.55833,-8
8.56667,-8
8.57500,-8
8.58333,-8
8.59167,-8
8.60000,-8
8.60833,-8
8.61667,-8
8.62500,-8
8.63333,-8
8.64167,-8
8.65000,-7
8.65833,-7
8.66667,-7
8.67500,-7
8.68333,-7
8.69167,-7
8.70000,-7
8.70833,-8
8.71667,-8
8.72500,-8
8.73333,-8
8.74167,-7
8.75000,-7
8.75833,-7
8.76667,-7
8.77500,-7
8.78333,-7
8.79167,-7
8.80000,-7
8.80833,-8
8.81667,-8
8.82500,-7
8.83333,-7
8.84167,-7
8.85000,-8
8.85833,-8
8.86667,-8
8.87500,-8
8.88333,-8
8.89167,-8
8.90000,-8
8.90833,-8
8.91667,-7
8.92500,-7
8.93333,-7
8.94167,-7
8.95000,-7
8.95833,-7
8.96667,-7
8.97500,-7
8.98333,-7
8.99167,-7
9.00000,-7
9.00833,-7
9.01667,-8
9.02500,-8
9.03333,-8
9.04167,-8
9.05000,-8
9.05833,-7
9.06667,-7
9.07500,-7
9.08333,-7
9.09167,-7
9.10000,-7
9.10833,-8
9.11667,-8
9.12500,-8
9.13333,-8
9.14167,-8
9.15000,-8
9.15833,-8
9.16667,-8
9.17500,-8
9.18333,-7
9.19167,-7
9.20000,-7
9.20833,-7
9.21667,-7
9.22500,-7
9.23333,-8
9.24167,-8
9.25000,-8
9.25833,-8
9.26667,-8
9.27500,-8
9.28333,-8
9.29167,-8
9.30000,-8
9.30833,-7
9.31667,-7
9.32500,-7
9.33333,-8
9.34167,-7
9.35000,-7
9.35833,-7
9.36667,-7
9.37500,-7
9.38333,-8
9.39167,-8
9.40000,-8
9.40833,-8
9.41667,-8
9.42500,-8
9.43333,-8
9.44167,-8
9.45000,-8
9.45833,-8
9.46667,-8
9.47500,-8
9.48333,-8
9.49167,-7
9.50000,-7
9.50833,-7
9.51667,-7
9.52500,-7
9.53333,-8
9.54167,-8
9.55000,-8
9.55833,-8
9.56667,-8
9.57500,-8
9.58333,-8
9.59167,-8
9.60000,-8
9.60833,-7
9.61667,-7
9.62500,-7
9.63333,-7
9.64167,-7
9.65000,-8
9.65833,-8
9.66667,-8
9.67500,-8
9.68333,-8
9.69167,-8
9.70000,-8
9.70833,-8
9.71667,-8
9.72500,-8
9.73333,-7
9.74167,-7
9.75000,-8
9.75833,-8
9.76667,-8
9.77500,-8
9.78333,-8
9.79167,-8
9.80000,-7
9.80833,-7
9.81667,-7
9.82500,-7
9.83333,-7
9.84167,-7
9.85000,-7
9.85833,-7
9.86667,-7
9.87500,-7
9.88333,-7
9.89167,-7
9.90000,-7
9.90833,-7
9.91667,-7
9.92500,-7
9.93333,-7
9.94167,-7
9.95000,-7
9.95833,-7
9.96667,-7
9.97500,-7
9.98333,-7
9.99167,-7
10.00000,-7
10.00833,-7
10.01667,-7
10.02500,-7
10.03333,-8
10.04167,-8
10.05000,-8
10.05833,-8
10.06667,-7
10.07500,-7
10.08333,-8
10.09167,-8
10.10000,-8
10.10833,-8
10.11667,-8
10.12500,-8
10.13333,-8
10.14167,-8
10.15000,-8
10.15833,-8
10.16667,-8
10.17500,-8
10.18333,-8
10.19167,-8
10.20000,-9
10.20833,-8
10.21667,-8
10.22500,-8
10.23333,-8
10.24167,-8
10.25000,-8
10.25833,-8
10.26667,-8
10.27500,-8
10.28333,-8
10.29167,-8
10.30000,-8
10.30833,-8
10.31667,-8
10.32500,-8
10.33333,-8
10.34167,-8
10.35000,-8
10.35833,-8
10.36667,-8
10.37500,-9
10.38333,-9
10.39167,-9
10.40000,-9
10.40833,-9
10.41667,-9
10.42500,-9
10.43333,-9
10.44167,-9
10.45000,-9
10.45833,-10
10.46667,-10
10.47500,-10
10.48333,-11
10.49167,-11
10.50000,-12
10.50833,-13
10.51667,-13
10.52500,-14
10.53333,-15
10.54167,-17
10.55000,-19
10.55833,-22
10.56667,-25
10.57500,-31
10.58333,-37
10.59167,-46
10.60000,-58
10.60833,-74
10.61667,-95
10.62500,-123
10.63333,-160
10.64167,-208
10.65000,-269
10.65833,-348
10.66667,-448
10.67500,-573
10.68333,-729
10.69167,-920
10.70000,-1153
10.70833,-1434
10.71667,-1768
10.72500,-2160
10.73333,-2617
10.74167,-3143
10.75000,-3741
10.75833,-4414
10.76667,-5161
10.77500,-5980
10.78333,-6868
10.79167,-7817
10.80000,-8820
10.80833,-9865
10.81667,-10941
10.82500,-12033
10.83333,-13125
10.84167,-14203
10.85000,-15248
10.85833,-16247
10.86667,-17183
10.87500,-18044
10.88333,-18816
10.89167,-19489
10.90000,-20055
10.90833,-20509
10.91667,-20846
10.92500,-21065
10.93333,-21167
10.94167,-21153
10.95000,-21029
10.95833,-20800
10.96667,-20473
10.97500,-20057
10.98333,-19560
10.99167,-18991
11.00000,-18361
11.00833,-17679
11.01667,-16955
11.02500,-16198
11.03333,-15417
11.04167,-14621
11.05000,-13818
11.05833,-13015
11.06667,-12219
11.07500,-11435
11.08333,-10668
11.09167,-9924
11.10000,-9206
11.10833,-8517
11.11667,-7859
11.12500,-7234
11.13333,-6644
11.14167,-6089
11.15000,-5568
11.15833,-5083
11.16667,-4632
11.17500,-4214
11.18333,-3829
11.19167,-3475
11.20000,-3150
11.20833,-2853
11.21667,-2583
11.22500,-2338
11.23333,-2115
11.24167,-1914
11.25000,-1732
11.25833,-1568
11.26667,-1420
11.27500,-1288
11.28333,-1169
11.29167,-1063
11.30000,-968
11.30833,-883
11.31667,-807
11.32500,-739
11.33333,-679
11.34167,-625
11.35000,-576
11.35833,-533
11.36667,-493
11.37500,-458
11.38333,-427
11.39167,-399
11.40000,-374
11.40833,-351
11.41667,-331
11.42500,-312
11.43333,-295
11.44167,-279
11.45000,-265
11.45833,-253
11.46667,-241
11.47500,-230
11.48333,-220
11.49167,-211
11.50000,-202
11.50833,-194
11.51667,-187
11.52500,-180
11.53333,-174
11.54167,-168
11.55000,-162
11.55833,-157
11.56667,-153
11.57500,-148
11.58333,-144
11.59167,-140
11.60000,-136
11.60833,-133
11.61667,-129
11.62500,-125
11.63333,-122
11.64167,-119
11.65000,-116
11.65833,-114
11.66667,-111
11.67500,-109
11.68333,-107
11.69167,-105
11.70000,-103
11.70833,-101
11.71667,-99
11.72500,-97
11.73333,-95
11.74167,-94
11.75000,-92
11.75833,-91
11.76667,-89
11.77500,-88
11.78333,-87
11.79167,-85
11.80000,-84
11.80833,-82
11.81667,-81
11.82500,-80
11.83333,-79
11.84167,-78
11.85000,-76
11.85833,-75
11.86667,-75
11.87500,-74
11.88333,-73
11.89167,-73
11.90000,-72
11.90833,-71
11.91667,-70
11.92500,-69
11.93333,-69
11.94167,-68
11.95000,-67
11.95833,-66
11.96667,-66
11.97500,-66
11.98333,-66
11.99167,-65
12.00000,-65
12.00833,-65
12.01667,-64
12.02500,-64
12.03333,-63
12.04167,-63
12.05000,-62
12.05833,-62
12.06667,-61
12.07500,-61
12.08333,-60
12.09167,-60
12.10000,-59
12.10833,-59
12.11667,-58
12.12500,-58
12.13333,-58
12.14167,-58
12.15000,-58
12.15833,-58
12.16667,-58
12.17500,-57
12.18333,-57
12.19167,-57
12.20000,-57
12.20833,-56
12.21667,-56
12.22500,-55
12.23333,-55
12.24167,-54
12.25000,-54
12.25833,-54
12.26667,-54
12.27500,-54
12.28333,-54
12.29167,-53
12.30000,-53
12.30833,-52
12.31667,-52
12.32500,-52
12.33333,-52
12.34167,-51
12.35000,-51
12.35833,-51
12.36667,-51
12.37500,-51
12.38333,-51
12.39167,-50
12.40000,-50
12.40833,-50
12.41667,-50
12.42500,-49
12.43333,-49
12.44167,-49
12.45000,-48
12.45833,-48
12.46667,-47
12.47500,-47
12.48333,-46
12.49167,-46
12.50000,-46
12.50833,-45
12.51667,-45
12.52500,-45
12.53333,-45
12.54167,-44
12.55000,-44
12.55833,-44
12.56667,-44
12.57500,-43
12.58333,-43
12.59167,-42
12.60000,-42
12.60833,-42
12.61667,-42
12.62500,-42
12.63333,-42
12.64167,-42
12.65000,-41
12.65833,-41
12.66667,-42
12.67500,-42
12.68333,-41
12.69167,-41
12.70000,-40
12.70833,-40
12.71667,-40
12.72500,-39
12.73333,-38
12.74167,-38
12.75000,-38
12.75833,-38
12.76667,-37
12.77500,-37
12.78333,-37
12.79167,-37
12.80000,-36
12.80833,-36
12.81667,-35
12.82500,-35
12.83333,-35
12.84167,-35
12.85000,-35
12.85833,-35
12.86667,-34
12.87500,-34
12.88333,-34
12.89167,-34
12.90000,-33
12.90833,-33
12.91667,-32
12.92500,-32
12.93333,-32
12.94167,-32
12.95000,-31
12.95833,-31
12.96667,-31
12.97500,-31
12.98333,-30
12.99167,-30
13.00000,-30
13.00833,-30
13.01667,-29
13.02500,-29
13.03333,-28
13.04167,-28
13.05000,-28
13.05833,-28
13.06667,-28
13.07500,-28
13.08333,-28
13.09167,-27
13.10000,-27
13.10833,-27
13.11667,-26
13.12500,-26
13.13333,-26
13.14167,-26
13.15000,-26
13.15833,-26
13.16667,-26
13.17500,-26
13.18333,-25
13.19167,-25
13.20000,-25
13.20833,-24
13.21667,-24
13.22500,-23
13.23333,-23
13.24167,-23
13.25000,-23
13.25833,-23
13.26667,-22
13.27500,-22
13.28333,-23
13.29167,-23
13.30000,-23
13.30833,-23
13.31667,-24
13.32500,-24
13.33333,-24
13.34167,-24
13.35000,-24
13.35833,-24
13.36667,-24
13.37500,-24
13.38333,-24
13.39167,-24
13.40000,-24
13.40833,-24
13.41667,-24
13.42500,-24
13.43333,-24
13.44167,-25
13.45000,-25
13.45833,-24
13.46667,-24
13.47500,-24
13.48333,-24
13.49167,-24
13.50000,-24
13.50833,-24
13.51667,-25
13.52500,-25
13.53333,-25
13.54167,-25
13.55000,-25
13.55833,-25
13.56667,-25
13.57500,-25
13.58333,-24
13.59167,-24
13.60000,-24
13.60833,-24
13.61667,-24
13.62500,-24
13.63333,-24
13.64167,-24
13.65000,-24
13.65833,-24
13.66667,-24
13.67500,-24
13.68333,-24
13.69167,-24
13.70000,-24
13.70833,-24
13.71667,-24
13.72500,-24
13.73333,-24
13.74167,-24
13.75000,-24
13.75833,-24
13.76667,-24
13.77500,-24
13.78333,-24
13.79167,-24
13.80000,-24
13.80833,-24
13.81667,-24
13.82500,-23
13.83333,-23
13.84167,-23
13.85000,-23
13.85833,-23
13.86667,-23
13.87500,-23
13.88333,-23
13.89167,-23
13.90000,-23
13.90833,-23
13.91667,-23
13.92500,-22
13.93333,-22
13.94167,-22
13.95000,-22
13.95833,-22
13.96667,-22
13.97500,-22
13.98333,-22
13.99167,-23
14.00000,-23
14.00833,-22
14.01667,-22
14.02500,-22
14.03333,-22
14.04167,-22
14.05000,-22
14.05833,-22
14.06667,-22
14.07500,-22
14.08333,-22
14.09167,-22
14.10000,-22
14.10833,-21
14.11667,-21
14.12500,-20
14.13333,-20
14.14167,-20
14.15000,-20
14.15833,-21
14.16667,-21
14.17500,-21
14.18333,-21
14.19167,-22
14.20000,-22
14.20833,-22
14.21667,-22
14.22500,-22
14.23333,-22
14.24167,-22
14.25000,-21
14.25833,-21
14.26667,-21
14.27500,-21
14.28333,-21
14.29167,-21
14.30000,-20
14.30833,-20
14.31667,-20
14.32500,-20
14.33333,-20
14.34167,-19
14.35000,-19
14.35833,-19
14.36667,-19
14.37500,-19
14.38333,-19
14.39167,-20
14.40000,-20
14.40833,-20
14.41667,-21
14.42500,-21
14.43333,-21
14.44167,-21
14.45000,-20
14.45833,-20
14.46667,-20
14.47500,-20
14.48333,-20
14.49167,-20
14.50000,-20
14.50833,-20
14.51667,-19
14.52500,-19
14.53333,-19
14.54167,-19
14.55000,-19
14.55833,-18
14.56667,-18
14.57500,-18
14.58333,-18
14.59167,-18
14.60000,-18
14.60833,-18
14.61667,-18
14.62500,-18
14.63333,-18
14.64167,-18
14.65000,-18
14.65833,-18
14.66667,-18
14.67500,-18
14.68333,-18
14.69167,-18
14.70000,-18
14.70833,-18
14.71667,-18
14.72500,-18
14.73333,-18
14.74167,-18
14.75000,-18
14.75833,-18
14.76667,-18
14.77500,-18
14.78333,-18
14.79167,-17
14.80000,-17
14.80833,-17
14.81667,-17
14.82500,-17
14.83333,-16
14.84167,-16
14.85000,-16
14.85833,-16
14.86667,-16
14.87500,-16
14.88333,-16
14.89167,-16
14.90000,-15
14.90833,-15
14.91667,-15
14.92500,-15
14.93333,-15
14.94167,-15
14.95000,-14
14.95833,-14
14.96667,-14
14.97500,-13
14.98333,-12
14.99167,-12
15.00000,-11
15.00833,-11
15.01667,-10
15.02500,-9
15.03333,-8
15.04167,-7
15.05000,-5
15.05833,-3
15.06667,-1
15.07500,2
15.08333,5
15.09167,8
15.10000,13
15.10833,18
15.11667,23
15.12500,30
15.13333,38
15.14167,47
15.15000,58
15.15833,72
15.16667,87
15.17500,106
15.18333,127
15.19167,153
15.20000,183
15.20833,218
15.21667,259
15.22500,305
15.23333,360
15.24167,422
15.25000,493
15.25833,574
15.26667,666
15.27500,770
15.28333,887
15.29167,1018
15.30000,1163
15.30833,1325
15.31667,1502
15.32500,1697
15.33333,1909
15.34167,2139
15.35000,2389
15.35833,2657
15.36667,2943
15.37500,3247
15.38333,3570
15.39167,3909
15.40000,4263
15.40833,4632
15.41667,5013
15.42500,5405
15.43333,5805
15.44167,6212
15.45000,6623
15.45833,7035
15.46667,7445
15.47500,7851
15.48333,8249
15.49167,8637
15.50000,9011
15.50833,9370
15.51667,9709
15.52500,10027
15.53333,10321
15.54167,10589
15.55000,10829
15.55833,11038
15.56667,11216
15.57500,11361
15.58333,11473
15.59167,11552
15.60000,11596
15.60833,11607
15.61667,11584
15.62500,11529
15.63333,11442
15.64167,11325
15.65000,11179
15.65833,11005
15.66667,10806
15.67500,10583
15.68333,10339
15.69167,10076
15.70000,9796
15.70833,9502
15.71667,9195
15.72500,8877
15.73333,8552
15.74167,8221
15.75000,7885
15.75833,7547
15.76667,7210
15.77500,6873
15.78333,6540
15.79167,6211
15.80000,5888
15.80833,5572
15.81667,5263
15.82500,4963
15.83333,4673
15.84167,4393
15.85000,4123
15.85833,3864
15.86667,3617
15.87500,3380
15.88333,3155
15.89167,2941
15.90000,2738
15.90833,2546
15.91667,2366
15.92500,2195
15.93333,2035
15.94167,1885
15.95000,1745
15.95833,1614
15.96667,1492
15.97500,1378
15.98333,1273
15.99167,1175
16.00000,1084
16.00833,1000
16.01667,922
16.02500,851
16.03333,784
16.04167,723
16.05000,666
16.05833,614
16.06667,566
16.07500,523
16.08333,483
16.09167,446
16.10000,413
16.10833,382
16.11667,354
16.12500,328
16.13333,304
16.14167,282
16.15000,262
16.15833,244
16.16667,227
16.17500,212
16.18333,198
16.19167,185
16.20000,174
16.20833,164
16.21667,154
16.22500,145
16.23333,136
16.24167,128
16.25000,121
16.25833,114
16.26667,108
16.27500,103
16.28333,98
16.29167,93
16.30000,89
16.30833,85
16.31667,81
16.32500,78
16.33333,75
16.34167,72
16.35000,69
16.35833,67
16.36667,64
16.37500,62
16.38333,60
16.39167,58
16.40000,56
16.40833,54
16.41667,53
16.42500,51
16.43333,50
16.44167,48
16.45000,47
16.45833,46
16.46667,44
16.47500,43
16.48333,43
16.49167,42
16.50000,41
16.50833,40
16.51667,39
16.52500,38
16.53333,37
16.54167,37
16.55000,36
16.55833,35
16.56667,35
16.57500,34
16.58333,33
16.59167,32
16.60000,31
16.60833,31
16.61667,30
16.62500,29
16.63333,28
16.64167,28
16.65000,28
16.65833,28
16.66667,28
16.67500,27
16.68333,27
16.69167,26
16.70000,26
16.70833,25
16.71667,25
16.72500,25
16.73333,25
16.74167,24
16.75000,24
16.75833,23
16.76667,22
16.77500,22
16.78333,22
16.79167,22
16.80000,22
16.80833,21
16.81667,21
16.82500,21
16.83333,20
16.84167,20
16.85000,20
16.85833,19
16.86667,19
16.87500,19
16.88333,19
16.89167,19
16.90000,18
16.90833,18
16.91667,17
16.92500,17
16.93333,17
16.94167,16
16.95000,16
16.95833,15
16.96667,15
16.97500,14
16.98333,14
16.99167,14
17.00000,14
17.00833,13
17.01667,13
17.02500,13
17.03333,12
17.04167,12
17.05000,13
17.05833,13
17.06667,13
17.07500,13
17.08333,12
17.09167,12
17.10000,11
17.10833,11
17.11667,11
17.12500,11
17.13333,10
17.14167,10
17.15000,9
17.15833,9
17.16667,9
17.17500,9
17.18333,8
17.19167,8
17.20000,8
17.20833,8
17.21667,8
17.22500,8
17.23333,8
17.24167,8
17.25000,8
17.25833,8
17.26667,8
17.27500,7
17.28333,7
17.29167,6
17.30000,6
17.30833,6
17.31667,6
17.32500,6
17.33333,6
17.34167,6
17.35000,6
17.35833,5
17.36667,5
17.37500,5
17.38333,6
17.39167,6
17.40000,5
17.40833,5
17.41667,5
17.42500,4
17.43333,4
17.44167,4
17.45000,3
17.45833,3
17.46667,3
17.47500,3
17.48333,3
17.49167,3
17.50000,3
17.50833,3
17.51667,3
17.52500,3
17.53333,3
17.54167,3
17.55000,3
17.55833,3
17.56667,3
17.57500,3
17.58333,3
17.59167,3
17.60000,3
17.60833,3
17.61667,2
17.62500,2
17.63333,2
17.64167,2
17.65000,1
17.65833,2
17.66667,2
17.67500,2
17.68333,2
17.69167,2
17.70000,2
17.70833,1
17.71667,1
17.72500,1
17.73333,1
17.74167,1
17.75000,1
17.75833,0
17.76667,1
17.77500,1
17.78333,1
17.79167,1
17.80000,1
17.80833,1
17.81667,0
17.82500,0
17.83333,0
17.84167,0
17.85000,0
17.85833,0
17.86667,-0
17.87500,-0
17.88333,-1
17.89167,-1
17.90000,-1
17.90833,-1
17.91667,-0
17.92500,-0
17.93333,-1
17.94167,-1
17.95000,-1
17.95833,-1
17.96667,-1
17.97500,-1
17.98333,-1
17.99167,-2
18.00000,-2
18.00833,-1
18.01667,-1
18.02500,-1
18.03333,-1
18.04167,-1
18.05000,-1
18.05833,-1
18.06667,-2
18.07500,-2
18.08333,-2
18.09167,-2
18.10000,-2
18.10833,-2
18.11667,-2
18.12500,-2
18.13333,-3
18.14167,-3
18.15000,-3
18.15833,-3
18.16667,-3
18.17500,-3
18.18333,-3
18.19167,-3
18.20000,-3
18.20833,-3
18.21667,-3
18.22500,-3
18.23333,-2
18.24167,-2
18.25000,-2
18.25833,-2
18.26667,-2
18.27500,-2
18.28333,-2
18.29167,-2
18.30000,-3
18.30833,-3
18.31667,-3
18.32500,-3
18.33333,-3
18.34167,-3
18.35000,-3
18.35833,-3
18.36667,-3
18.37500,-3
18.38333,-4
18.39167,-4
18.40000,-4
18.40833,-4
18.41667,-4
18.42500,-4
18.43333,-4
18.44167,-4
18.45000,-4
18.45833,-4
18.46667,-4
18.47500,-5
18.48333,-4
18.49167,-4
18.50000,-4
18.50833,-4
18.51667,-4
18.52500,-4
18.53333,-4
18.54167,-4
18.55000,-4
18.55833,-4
18.56667,-4
18.57500,-4
18.58333,-4
18.59167,-3
18.60000,-3
18.60833,-2
18.61667,-2
18.62500,-2
18.63333,-2
18.64167,-2
18.65000,-2
18.65833,-3
18.66667,-3
18.67500,-3
18.68333,-2
18.69167,-2
18.70000,-1
18.70833,-1
18.71667,-0
18.72500,-0
18.73333,0
18.74167,0
18.75000,1
18.75833,1
18.76667,1
18.77500,2
18.78333,3
18.79167,3
18.80000,4
18.80833,4
18.81667,5
18.82500,5
18.83333,6
18.84167,7
18.85000,7
18.85833,8
18.86667,8
18.87500,8
18.88333,9
18.89167,9
18.90000,9
18.90833,9
18.91667,9
18.92500,9
18.93333,9
18.94167,9
18.95000,9
18.95833,10
18.96667,10
18.97500,9
18.98333,9
18.99167,9
19.00000,8
19.00833,8
19.01667,8
19.02500,7
19.03333,7
19.04167,6
19.05000,6
19.05833,6
19.06667,5
19.07500,5
19.08333,4
19.09167,4
19.10000,3
19.10833,3
19.11667,2
19.12500,2
19.13333,1
19.14167,1
19.15000,0
19.15833,-0
19.16667,-1
19.17500,-1
19.18333,-1
19.19167,-2
19.20000,-2
19.20833,-2
19.21667,-2
19.22500,-3
19.23333,-3
19.24167,-3
19.25000,-4
19.25833,-4
19.26667,-4
19.27500,-5
19.28333,-5
19.29167,-5
19.30000,-5
19.30833,-5
19.31667,-6
19.32500,-6
19.33333,-6
19.34167,-6
19.35000,-6
19.35833,-7
19.36667,-7
19.37500,-7
19.38333,-7
19.39167,-6
19.40000,-6
19.40833,-7
19.41667,-7
19.42500,-7
19.43333,-7
19.44167,-7
19.45000,-7
19.45833,-7
19.46667,-7
19.47500,-7
19.48333,-8
19.49167,-8
19.50000,-8
19.50833,-7
19.51667,-7
19.52500,-7
19.53333,-7
19.54167,-8
19.55000,-8
19.55833,-8
19.56667,-8
19.57500,-8
19.58333,-8
19.59167,-8
19.60000,-8
19.60833,-8
19.61667,-8
19.62500,-8
19.63333,-8
19.64167,-8
19.65000,-8
19.65833,-8
19.66667,-9
19.67500,-9
19.68333,-9
19.69167,-9
19.70000,-9
19.70833,-10
19.71667,-10
19.72500,-10
19.73333,-10
19.74167,-10
19.75000,-10
19.75833,-10
19.76667,-10
19.77500,-10
19.78333,-10
19.79167,-10
19.80000,-10
19.80833,-10
19.81667,-10
19.82500,-10
19.83333,-10
19.84167,-10
19.85000,-10
19.85833,-10
19.86667,-10
19.87500,-10
19.88333,-10
19.89167,-10
19.90000,-10
19.90833,-10
19.91667,-10
19.92500,-11
19.93333,-11
19.94167,-11
19.95000,-11
19.95833,-11
19.96667,-10
19.97500,-10
19.98333,-10
19.99167,-10
20.00000,-10
20.00833,-10
20.01667,-10
20.02500,-10
20.03333,-10
20.04167,-10
20.05000,-11
20.05833,-11
20.06667,-10
20.07500,-10
20.08333,-10
20.09167,-10
20.10000,-10
20.10833,-10
20.11667,-10
20.12500,-10
20.13333,-10
20.14167,-11
20.15000,-11
20.15833,-11
20.16667,-11
20.17500,-11
20.18333,-11
20.19167,-11
20.20000,-11
20.20833,-11
20.21667,-11
20.22500,-11
20.23333,-11
20.24167,-11
20.25000,-11
20.25833,-11
20.26667,-10
20.27500,-10
20.28333,-10
20.29167,-11
20.30000,-11
20.30833,-11
20.31667,-11
20.32500,-11
20.33333,-11
20.34167,-11
20.35000,-12
20.35833,-12
20.36667,-12
20.37500,-11
20.38333,-11
20.39167,-12
20.40000,-12
20.40833,-12
20.41667,-12
20.42500,-11
20.43333,-11
20.44167,-11
20.45000,-11
20.45833,-11
20.46667,-11
20.47500,-11
20.48333,-11
20.49167,-11
20.50000,-11
20.50833,-11
20.51667,-11
20.52500,-11
20.53333,-11
20.54167,-12
20.55000,-12
20.55833,-12
20.56667,-12
20.57500,-12
20.58333,-11
20.59167,-11
20.60000,-11
20.60833,-11
20.61667,-11
20.62500,-11
20.63333,-10
20.64167,-10
20.65000,-11
20.65833,-11
20.66667,-11
20.67500,-11
20.68333,-11
20.69167,-11
20.70000,-11
20.70833,-12
20.71667,-12
20.72500,-12
20.73333,-13
20.74167,-13
20.75000,-13
20.75833,-13
20.76667,-13
20.77500,-13
20.78333,-13
20.79167,-13
20.80000,-13
20.80833,-13
20.81667,-12
20.82500,-12
20.83333,-12
20.84167,-12
20.85000,-12
20.85833,-12
20.86667,-12
20.87500,-12
20.88333,-12
20.89167,-12
20.90000,-11
20.90833,-11
20.91667,-11
20.92500,-12
20.93333,-12
20.94167,-12
20.95000,-12
20.95833,-12
20.96667,-12
20.97500,-12
20.98333,-12
20.99167,-12
21.00000,-12
21.00833,-12
21.01667,-12
21.02500,-11
21.03333,-11
21.04167,-11
21.05000,-12
21.05833,-12
21.06667,-12
21.07500,-12
21.08333,-12
21.09167,-12
21.10000,-12
21.10833,-12
21.11667,-13
21.12500,-13
21.13333,-13
21.14167,-13
21.15000,-13
21.15833,-13
21.16667,-12
21.17500,-12
21.18333,-12
21.19167,-11
21.20000,-11
21.20833,-11
21.21667,-11
21.22500,-11
21.23333,-12
21.24167,-12
21.25000,-12
21.25833,-13
21.26667,-12
21.27500,-12
21.28333,-12
21.29167,-12
21.30000,-12
21.30833,-12
21.31667,-12
21.32500,-12
21.33333,-12
21.34167,-12
21.35000,-11
21.35833,-11
21.36667,-11
21.37500,-11
21.38333,-11
21.39167,-10
21.40000,-10
21.40833,-9
21.41667,-8
21.42500,-8
21.43333,-7
21.44167,-6
21.45000,-5
21.45833,-4
21.46667,-3
21.47500,-2
21.48333,-1
21.49167,1
21.50000,2
21.50833,4
21.51667,6
21.52500,9
21.53333,11
21.54167,14
21.55000,18
21.55833,22
21.56667,27
21.57500,32
21.58333,38
21.59167,45
21.60000,52
21.60833,60
21.61667,70
21.62500,80
21.63333,92
21.64167,105
21.65000,119
21.65833,134
21.66667,152
21.67500,171
21.68333,193
21.69167,216
21.70000,242
21.70833,270
21.71667,301
21.72500,334
21.73333,371
21.74167,410
21.75000,452
21.75833,498
21.76667,547
21.77500,599
21.78333,655
21.79167,715
21.80000,779
21.80833,845
21.81667,915
21.82500,989
21.83333,1065
21.84167,1144
21.85000,1226
21.85833,1311
21.86667,1398
21.87500,1488
21.88333,1578
21.89167,1670
21.90000,1763
21.90833,1856
21.91667,1949
21.92500,2042
21.93333,2133
21.94167,2223
21.95000,2311
21.95833,2396
21.96667,2478
21.97500,2557
21.98333,2631
21.99167,2702
22.00000,2767
22.00833,2827
22.01667,2881
22.02500,2928
22.03333,2970
22.04167,3005
22.05000,3033
22.05833,3054
22.06667,3068
22.07500,3075
22.08333,3075
22.09167,3067
22.10000,3054
22.10833,3033
22.11667,3006
22.12500,2972
22.13333,2933
22.14167,2887
22.15000,2837
22.15833,2781
22.16667,2721
22.17500,2656
22.18333,2588
22.19167,2517
22.20000,2442
22.20833,2366
22.21667,2287
22.22500,2207
22.23333,2125
22.24167,2043
22.25000,1960
22.25833,1877
22.26667,1795
22.27500,1713
22.28333,1632
22.29167,1552
22.30000,1474
22.30833,1398
22.31667,1323
22.32500,1251
22.33333,1181
22.34167,1113
22.35000,1047
22.35833,984
22.36667,923
22.37500,865
22.38333,810
22.39167,757
22.40000,707
22.40833,659
22.41667,614
22.42500,571
22.43333,531
22.44167,493
22.45000,457
22.45833,424
22.46667,393
22.47500,364
22.48333,337
22.49167,311
22.50000,288
22.50833,266
22.51667,246
22.52500,227
22.53333,209
22.54167,193
22.55000,178
22.55833,163
22.56667,150
22.57500,138
22.58333,127
22.59167,117
22.60000,109
22.60833,100
22.61667,92
22.62500,85
22.63333,78
22.64167,72
22.65000,67
22.65833,62
22.66667,57
22.67500,52
22.68333,48
22.69167,44
22.70000,41
22.70833,38
22.71667,36
22.72500,34
22.73333,32
22.74167,29
22.75000,28
22.75833,26
22.76667,24
22.77500,23
22.78333,21
22.79167,20
22.80000,18
22.80833,17
22.81667,16
22.82500,14
22.83333,13
22.84167,12
22.85000,11
22.85833,11
22.86667,10
22.87500,10
22.88333,9
22.89167,8
22.90000,8
22.90833,7
22.91667,7
22.92500,6
22.93333,6
22.94167,5
22.95000,5
22.95833,5
22.96667,4
22.97500,4
22.98333,4
22.99167,4
23.00000,3
23.00833,3
23.01667,3
23.02500,3
23.03333,3
23.04167,2
23.05000,2
23.05833,1
23.06667,1
23.07500,1
23.08333,1
23.09167,1
23.10000,1
23.10833,0
23.11667,-0
23.12500,-0
23.13333,-1
23.14167,-1
23.15000,-1
23.15833,-1
23.16667,-1
23.17500,-1
23.18333,-1
23.19167,-1
23.20000,-1
23.20833,-0
23.21667,-1
23.22500,-1
23.23333,-2
23.24167,-2
23.25000,-2
23.25833,-2
23.26667,-2
23.27500,-2
23.28333,-3
23.29167,-3
23.30000,-3
23.30833,-2
23.31667,-2
23.32500,-2
23.33333,-3
23.34167,-3
23.35000,-3
23.35833,-3
23.36667,-4
23.37500,-4
23.38333,-4
23.39167,-4
23.40000,-4
23.40833,-4
23.41667,-4
23.42500,-4
23.43333,-4
23.44167,-4
23.45000,-4
23.45833,-5
23.46667,-5
23.47500,-5
23.48333,-4
23.49167,-4
23.50000,-5
23.50833,-4
23.51667,-4
23.52500,-5
23.53333,-5
23.54167,-6
23.55000,-6
23.55833,-6
23.56667,-6
23.57500,-6
23.58333,-6
23.59167,-6
23.60000,-6
23.60833,-7
23.61667,-7
23.62500,-7
23.63333,-7
23.64167,-7
23.65000,-7
23.65833,-7
23.66667,-7
23.67500,-7
23.68333,-7
23.69167,-7
23.70000,-7
23.70833,-7
23.71667,-7
23.72500,-7
23.73333,-7
23.74167,-7
23.75000,-7
23.75833,-7
23.76667,-7
23.77500,-7
23.78333,-7
23.79167,-8
23.80000,-7
23.80833,-7
23.81667,-7
23.82500,-7
23.83333,-8
23.84167,-8
23.85000,-8
23.85833,-8
23.86667,-8
23.87500,-8
23.88333,-8
23.89167,-8
23.90000,-8
23.90833,-8
23.91667,-7
23.92500,-7
23.93333,-7
23.94167,-7
23.95000,-7
23.95833,-7
23.96667,-8
23.97500,-8
23.98333,-8
23.99167,-8
24.00000,-8
24.00833,-8
24.01667,-8
24.02500,-7
24.03333,-7
24.04167,-7
24.05000,-7
24.05833,-8
24.06667,-8
24.07500,-8
24.08333,-8
24.09167,-7
24.10000,-7
24.10833,-7
24.11667,-7
24.12500,-7
24.13333,-7
24.14167,-8
24.15000,-8
24.15833,-7
24.16667,-7
24.17500,-7
24.18333,-7
24.19167,-7
24.20000,-7
24.20833,-7
24.21667,-6
24.22500,-7
24.23333,-7
24.24167,-7
24.25000,-7
24.25833,-7
24.26667,-6
24.27500,-6
24.28333,-6
24.29167,-6
24.30000,-5
24.30833,-5
24.31667,-5
24.32500,-5
24.33333,-5
24.34167,-4
24.35000,-4
24.35833,-4
24.36667,-3
24.37500,-3
24.38333,-2
24.39167,-1
24.40000,-1
24.40833,0
24.41667,2
24.42500,3
24.43333,4
24.44167,6
24.45000,8
24.45833,9
24.46667,11
24.47500,13
24.48333,15
24.49167,17
24.50000,20
24.50833,24
24.51667,27
24.52500,31
24.53333,35
24.54167,40
24.55000,45
24.55833,50
24.56667,56
24.57500,63
24.58333,70
24.59167,78
24.60000,87
24.60833,96
24.61667,106
24.62500,117
24.63333,128
24.64167,141
24.65000,154
24.65833,169
24.66667,184
24.67500,201
24.68333,219
24.69167,238
24.70000,258
24.70833,278
24.71667,300
24.72500,323
24.73333,347
24.74167,372
24.75000,398
24.75833,425
24.76667,454
24.77500,483
24.78333,512
24.79167,543
24.80000,573
24.80833,605
24.81667,637
24.82500,669
24.83333,702
24.84167,734
24.85000,767
24.85833,800
24.86667,832
24.87500,864
24.88333,895
24.89167,925
24.90000,954
24.90833,982
24.91667,1009
24.92500,1034
24.93333,1058
24.94167,1080
24.95000,1101
24.95833,1120
24.96667,1136
24.97500,1151
24.98333,1164
24.99167,1175
25.00000,1183
25.00833,1189
25.01667,1192
25.02500,1193
25.03333,1191
25.04167,1188
25.05000,1182
25.05833,1174
25.06667,1164
25.07500,1152
25.08333,1138
25.09167,1122
25.10000,1104
25.10833,1085
25.11667,1064
25.12500,1042
25.13333,1018
25.14167,993
25.15000,967
25.15833,940
25.16667,912
25.17500,883
25.18333,853
25.19167,823
25.20000,793
25.20833,763
25.21667,733
25.22500,702
25.23333,673
25.24167,643
25.25000,614
25.25833,585
25.26667,556
25.27500,528
25.28333,501
25.29167,474
25.30000,449
25.30833,424
25.31667,400
25.32500,376
25.33333,353
25.34167,331
25.35000,311
25.35833,291
25.36667,272
25.37500,254
25.38333,237
25.39167,221
25.40000,206
25.40833,191
25.41667,178
25.42500,165
25.43333,153
25.44167,141
25.45000,130
25.45833,120
25.46667,111
25.47500,102
25.48333,93
25.49167,85
25.50000,78
25.50833,72
25.51667,66
25.52500,60
25.53333,55
25.54167,50
25.55000,46
25.55833,42
25.56667,38
25.57500,34
25.58333,31
25.59167,28
25.60000,25
25.60833,23
25.61667,20
25.62500,18
25.63333,16
25.64167,14
25.65000,12
25.65833,11
25.66667,9
25.67500,8
25.68333,7
25.69167,6
25.70000,5
25.70833,4
25.71667,4
25.72500,3
25.73333,3
25.74167,2
25.75000,2
25.75833,1
25.76667,0
25.77500,-1
25.78333,-1
25.79167,-1
25.80000,-2
25.80833,-2
25.81667,-2
25.82500,-2
25.83333,-3
25.84167,-3
25.85000,-3
25.85833,-3
25.86667,-4
25.87500,-4
25.88333,-4
25.89167,-5
25.90000,-5
25.90833,-5
25.91667,-6
25.92500,-6
25.93333,-6
25.94167,-6
25.95000,-6
25.95833,-6
25.96667,-6
25.97500,-6
25.98333,-6
25.99167,-6
26.00000,-6
26.00833,-6
26.01667,-6
26.02500,-7
26.03333,-7
26.04167,-7
26.05000,-7
26.05833,-8
26.06667,-8
26.07500,-8
26.08333,-8
26.09167,-8
26.10000,-8
26.10833,-8
26.11667,-9
26.12500,-9
26.13333,-9
26.14167,-9
26.15000,-9
26.15833,-9
26.16667,-9
26.17500,-9
26.18333,-10
26.19167,-10
26.20000,-10
26.20833,-10
26.21667,-10
26.22500,-10
26.23333,-10
26.24167,-9
26.25000,-9
26.25833,-9
26.26667,-9
26.27500,-10
26.28333,-10
26.29167,-10
26.30000,-10
26.30833,-10
26.31667,-10
26.32500,-10
26.33333,-10
26.34167,-10
26.35000,-10
26.35833,-10
26.36667,-10
26.37500,-10
26.38333,-10
26.39167,-10
26.40000,-10
26.40833,-10
26.41667,-10
26.42500,-10
26.43333,-10
26.44167,-10
26.45000,-11
26.45833,-11
26.46667,-11
26.47500,-11
26.48333,-11
26.49167,-11
26.50000,-11
26.50833,-11
26.51667,-11
26.52500,-11
26.53333,-11
26.54167,-11
26.55000,-11
26.55833,-11
26.56667,-11
26.57500,-11
26.58333,-11
26.59167,-11
26.60000,-10
26.60833,-10
26.61667,-10
26.62500,-10
26.63333,-10
26.64167,-10
26.65000,-10
26.65833,-10
26.66667,-10
26.67500,-10
26.68333,-10
26.69167,-10
26.70000,-10
26.70833,-11
26.71667,-11
26.72500,-10
26.73333,-10
26.74167,-10
26.75000,-10
26.75833,-10
26.76667,-9
26.77500,-9
26.78333,-9
26.79167,-9
26.80000,-9
26.80833,-9
26.81667,-9
26.82500,-9
26.83333,-9
26.84167,-9
26.85000,-9
26.85833,-9
26.86667,-9
26.87500,-9
26.88333,-9
26.89167,-10
26.90000,-10
26.90833,-11
26.91667,-11
26.92500,-11
26.93333,-11
26.94167,-11
26.95000,-11
26.95833,-11
26.96667,-11
26.97500,-11
26.98333,-11
26.99167,-11
27.00000,-11
27.00833,-11
27.01667,-11
27.02500,-11
27.03333,-11
27.04167,-11
27.05000,-11
27.05833,-11
27.06667,-11
27.07500,-11
27.08333,-12
27.09167,-12
27.10000,-12
27.10833,-12
27.11667,-11
27.12500,-11
27.13333,-11
27.14167,-11
27.15000,-11
27.15833,-11
27.16667,-10
27.17500,-10
27.18333,-11
27.19167,-11
27.20000,-11
27.20833,-11
27.21667,-11
27.22500,-11
27.23333,-12
27.24167,-12
27.25000,-12
27.25833,-11
27.26667,-11
27.27500,-11
27.28333,-12
27.29167,-12
27.30000,-12
27.30833,-11
27.31667,-11
27.32500,-11
27.33333,-11
27.34167,-11
27.35000,-12
27.35833,-12
27.36667,-12
27.37500,-11
27.38333,-12
27.39167,-12
27.40000,-12
27.40833,-12
27.41667,-12
27.42500,-12
27.43333,-12
27.44167,-12
27.45000,-12
27.45833,-12
27.46667,-12
27.47500,-12
27.48333,-12
27.49167,-12
27.50000,-12
27.50833,-12
27.51667,-12
27.52500,-12
27.53333,-12
27.54167,-13
27.55000,-13
27.55833,-13
27.56667,-13
27.57500,-12
27.58333,-12
27.59167,-12
27.60000,-12
27.60833,-12
27.61667,-13
27.62500,-13
27.63333,-13
27.64167,-13
27.65000,-13
27.65833,-14
27.66667,-14
27.67500,-14
27.68333,-14
27.69167,-14
27.70000,-14
27.70833,-14
27.71667,-14
27.72500,-14
27.73333,-14
27.74167,-14
27.75000,-14
27.75833,-13
27.76667,-13
27.77500,-13
27.78333,-14
27.79167,-14
27.80000,-14
27.80833,-14
27.81667,-14
27.82500,-15
27.83333,-15
27.84167,-16
27.85000,-16
27.85833,-16
27.86667,-17
27.87500,-17
27.88333,-18
27.89167,-18
27.90000,-19
27.90833,-19
27.91667,-19
27.92500,-20
27.93333,-20
27.94167,-21
27.95000,-22
27.95833,-22
27.96667,-23
27.97500,-24
27.98333,-25
27.99167,-26
28.00000,-27
28.00833,-28
28.01667,-29
28.02500,-31
28.03333,-32
28.04167,-34
28.05000,-36
28.05833,-38
28.06667,-39
28.07500,-41
28.08333,-43
28.09167,-45
28.10000,-47
28.10833,-49
28.11667,-51
28.12500,-54
28.13333,-56
28.14167,-59
28.15000,-62
28.15833,-65
28.16667,-67
28.17500,-70
28.18333,-73
28.19167,-76
28.20000,-79
28.20833,-82
28.21667,-86
28.22500,-89
28.23333,-93
28.24167,-96
28.25000,-99
28.25833,-103
28.26667,-106
28.27500,-109
28.28333,-113
28.29167,-117
28.30000,-120
28.30833,-124
28.31667,-127
28.32500,-130
28.33333,-134
28.34167,-137
28.35000,-140
28.35833,-143
28.36667,-146
28.37500,-149
28.38333,-152
28.39167,-155
28.40000,-157
28.40833,-160
28.41667,-163
28.42500,-165
28.43333,-167
28.44167,-169
28.45000,-170
28.45833,-172
28.46667,-173
28.47500,-175
28.48333,-176
28.49167,-177
28.50000,-178
28.50833,-178
28.51667,-178
28.52500,-178
28.53333,-178
28.54167,-178
28.55000,-178
28.55833,-177
28.56667,-176
28.57500,-175
28.58333,-173
28.59167,-172
28.60000,-171
28.60833,-169
28.61667,-167
28.62500,-166
28.63333,-164
28.64167,-162
28.65000,-159
28.65833,-157
28.66667,-155
28.67500,-153
28.68333,-150
28.69167,-147
28.70000,-145
28.70833,-143
28.71667,-140
28.72500,-137
28.73333,-135
28.74167,-132
28.75000,-129
28.75833,-126
28.76667,-123
28.77500,-119
28.78333,-116
28.79167,-113
28.80000,-110
28.80833,-107
28.81667,-104
28.82500,-101
28.83333,-99
28.84167,-96
28.85000,-94
28.85833,-91
28.86667,-88
28.87500,-86
28.88333,-83
28.89167,-81
28.90000,-78
28.90833,-76
28.91667,-73
28.92500,-71
28.93333,-69
28.94167,-67
28.95000,-65
28.95833,-63
28.96667,-61
28.97500,-59
28.98333,-57
28.99167,-56
29.00000,-54
29.00833,-53
29.01667,-51
29.02500,-50
29.03333,-49
29.04167,-48
29.05000,-47
29.05833,-46
29.06667,-44
29.07500,-43
29.08333,-42
29.09167,-41
29.10000,-39
29.10833,-38
29.11667,-37
29.12500,-36
29.13333,-36
29.14167,-35
29.15000,-34
29.15833,-33
29.16667,-33
29.17500,-32
29.18333,-32
29.19167,-31
29.20000,-31
29.20833,-31
29.21667,-30
29.22500,-30
29.23333,-30
29.24167,-29
29.25000,-29
29.25833,-28
29.26667,-28
29.27500,-27
29.28333,-27
29.29167,-27
29.30000,-26
29.30833,-26
29.31667,-26
29.32500,-26
29.33333,-26
29.34167,-26
29.35000,-26
29.35833,-26
29.36667,-26
29.37500,-26
29.38333,-26
29.39167,-26
29.40000,-26
29.40833,-26
29.41667,-26
29.42500,-26
29.43333,-25
29.44167,-25
29.45000,-25
29.45833,-25
29.46667,-25
29.47500,-25
29.48333,-25
29.49167,-25
29.50000,-25
29.50833,-25
29.51667,-25
29.52500,-25
29.53333,-25
29.54167,-25
29.55000,-26
29.55833,-26
29.56667,-26
29.57500,-26
29.58333,-26
29.59167,-26
29.60000,-27
29.60833,-27
29.61667,-27
29.62500,-28
29.63333,-28
29.64167,-28
29.65000,-29
29.65833,-29
29.66667,-29
29.67500,-29
29.68333,-30
29.69167,-30
29.70000,-30
29.70833,-31
29.71667,-31
29.72500,-32
29.73333,-33
29.74167,-33
29.75000,-33
29.75833,-33
29.76667,-33
29.77500,-34
29.78333,-35
29.79167,-35
29.80000,-36
29.80833,-36
29.81667,-37
29.82500,-38
29.83333,-39
29.84167,-40
29.85000,-40
29.85833,-41
29.86667,-42
29.87500,-43
29.88333,-44
29.89167,-45
29.90000,-46
29.90833,-47
29.91667,-48
29.92500,-49
29.93333,-50
29.94167,-51
29.95000,-52
29.95833,-53
29.96667,-55
29.97500,-56
29.98333,-57
29.99167,-58
30.00000,-59
30.00833,-60
30.01667,-61
30.02500,-62
30.03333,-63
30.04167,-63
30.05000,-65
30.05833,-66
30.06667,-67
30.07500,-67
30.08333,-68
30.09167,-69
30.10000,-70
30.10833,-71
30.11667,-72
30.12500,-73
30.13333,-74
30.14167,-75
30.15000,-76
30.15833,-77
30.16667,-78
30.17500,-79
30.18333,-80
30.19167,-80
30.20000,-81
30.20833,-81
30.21667,-81
30.22500,-82
30.23333,-82
30.24167,-82
30.25000,-82
30.25833,-83
30.26667,-83
30.27500,-82
30.28333,-82
30.29167,-82
30.30000,-82
30.30833,-82
30.31667,-82
30.32500,-82
30.33333,-82
30.34167,-81
30.35000,-81
30.35833,-81
30.36667,-80
30.37500,-79
30.38333,-78
30.39167,-77
30.40000,-77
30.40833,-76
30.41667,-75
30.42500,-75
30.43333,-74
30.44167,-73
30.45000,-72
30.45833,-71
30.46667,-70
30.47500,-69
30.48333,-68
30.49167,-67
30.50000,-66
30.50833,-64
30.51667,-63
30.52500,-62
30.53333,-61
30.54167,-60
30.55000,-58
30.55833,-57
30.56667,-56
30.57500,-55
30.58333,-54
30.59167,-54
30.60000,-53
30.60833,-52
30.61667,-50
30.62500,-50
30.63333,-49
30.64167,-48
30.65000,-46
30.65833,-46
30.66667,-45
30.67500,-44
30.68333,-43
30.69167,-42
30.70000,-41
30.70833,-40
30.71667,-40
30.72500,-39
30.73333,-38
30.74167,-38
30.75000,-37
30.75833,-36
30.76667,-35
30.77500,-35
30.78333,-35
30.79167,-35
30.80000,-35
30.80833,-34
30.81667,-33
30.82500,-32
30.83333,-31
30.84167,-31
30.85000,-31
30.85833,-30
30.86667,-30
30.87500,-30
30.88333,-30
30.89167,-29
30.90000,-29
30.90833,-29
30.91667,-29
30.92500,-29
30.93333,-28
30.94167,-28
30.95000,-27
30.95833,-27
30.96667,-27
30.97500,-27
30.98333,-27
30.99167,-27
31.00000,-27
31.00833,-27
31.01667,-27
31.02500,-26
31.03333,-26
31.04167,-25
31.05000,-26
31.05833,-26
31.06667,-26
31.07500,-26
31.08333,-26
31.09167,-26
31.10000,-26
31.10833,-26
31.11667,-26
31.12500,-26
31.13333,-25
31.14167,-25
31.15000,-25
31.15833,-25
31.16667,-25
31.17500,-25
31.18333,-26
31.19167,-26
31.20000,-26
31.20833,-26
31.21667,-26
31.22500,-26
31.23333,-25
31.24167,-25
31.25000,-25
31.25833,-25
31.26667,-25
31.27500,-25
31.28333,-24
31.29167,-24
31.30000,-24
31.30833,-24
31.31667,-24
31.32500,-24
31.33333,-24
31.34167,-24
31.35000,-24
31.35833,-24
31.36667,-24
31.37500,-24
31.38333,-24
31.39167,-24
31.40000,-24
31.40833,-24
31.41667,-24
31.42500,-24
31.43333,-24
31.44167,-25
31.45000,-25
31.45833,-25
31.46667,-25
31.47500,-25
31.48333,-25
31.49167,-25
31.50000,-25
31.50833,-25
31.51667,-25
31.52500,-24
31.53333,-24
31.54167,-23
31.55000,-23
31.55833,-23
31.56667,-23
31.57500,-23
31.58333,-23
31.59167,-24
31.60000,-24
31.60833,-25
31.61667,-25
31.62500,-25
31.63333,-25
31.64167,-25
31.65000,-25
31.65833,-25
31.66667,-25
31.67500,-25
31.68333,-24
31.69167,-24
31.70000,-24
31.70833,-24
31.71667,-23
31.72500,-23
31.73333,-23
31.74167,-22
31.75000,-22
31.75833,-22
31.76667,-22
31.77500,-22
31.78333,-22
31.79167,-22
31.80000,-22
31.80833,-22
31.81667,-22
31.82500,-22
31.83333,-22
31.84167,-22
31.85000,-22
31.85833,-22
31.86667,-23
31.87500,-23
31.88333,-23
31.89167,-23
31.90000,-23
31.90833,-23
31.91667,-23
31.92500,-23
31.93333,-23
31.94167,-23
31.95000,-23
31.95833,-23
31.96667,-22
31.97500,-22
31.98333,-22
31.99167,-22
32.00000,-22
32.00833,-23
32.01667,-23
32.02500,-23
32.03333,-23
32.04167,-23
32.05000,-23
32.05833,-23
32.06667,-23
32.07500,-23
32.08333,-23
32.09167,-23
32.10000,-23
32.10833,-23
32.11667,-23
32.12500,-22
32.13333,-22
32.14167,-22
32.15000,-22
32.15833,-22
32.16667,-22
32.17500,-22
32.18333,-22
32.19167,-22
32.20000,-22
32.20833,-22
32.21667,-23
32.22500,-23
32.23333,-23
32.24167,-23
32.25000,-23
32.25833,-23
32.26667,-23
32.27500,-23
32.28333,-23
32.29167,-23
32.30000,-22
32.30833,-23
32.31667,-23
32.32500,-23
32.33333,-23
32.34167,-23
32.35000,-23
32.35833,-23
32.36667,-23
32.37500,-23
32.38333,-23
32.39167,-23
32.40000,-23
32.40833,-23
32.41667,-23
32.42500,-22
32.43333,-22
32.44167,-23
32.45000,-23
32.45833,-23
32.46667,-23
32.47500,-24
32.48333,-24
32.49167,-24
32.50000,-24
32.50833,-23
32.51667,-23
32.52500,-23
32.53333,-23
32.54167,-23
32.55000,-23
32.55833,-23
32.56667,-23
32.57500,-24
32.58333,-23
32.59167,-23
32.60000,-23
32.60833,-23
32.61667,-23
32.62500,-23
32.63333,-23
32.64167,-23
32.65000,-23
32.65833,-23
32.66667,-23
32.67500,-23
32.68333,-23
32.69167,-23
32.70000,-23
32.70833,-23
32.71667,-23
32.72500,-23
32.73333,-23
32.74167,-23
32.75000,-24
32.75833,-24
32.76667,-24
32.77500,-25
32.78333,-24
32.79167,-24
32.80000,-24
32.80833,-24
32.81667,-23
32.82500,-23
32.83333,-23
32.84167,-23
32.85000,-23
32.85833,-23
32.86667,-23
32.87500,-23
32.88333,-23
32.89167,-23
32.90000,-23
32.90833,-23
32.91667,-23
32.92500,-24
32.93333,-24
32.94167,-24
32.95000,-24
32.95833,-24
32.96667,-24
32.97500,-24
32.98333,-24
32.99167,-24
33.00000,-24
33.00833,-23
33.01667,-23
33.02500,-23
33.03333,-24
33.04167,-24
33.05000,-24
33.05833,-24
33.06667,-24
33.07500,-24
33.08333,-23
33.09167,-23
33.10000,-23
33.10833,-23
33.11667,-23
33.12500,-23
33.13333,-23
33.14167,-23
33.15000,-24
33.15833,-23
33.16667,-23
33.17500,-23
33.18333,-23
33.19167,-24
33.20000,-24
33.20833,-24
33.21667,-23
33.22500,-23
33.23333,-23
33.24167,-23
33.25000,-23
33.25833,-24
33.26667,-24
33.27500,-24
33.28333,-24
33.29167,-24
33.30000,-24
33.30833,-24
33.31667,-24
33.32500,-24
33.33333,-24
33.34167,-24
33.35000,-24
33.35833,-24
33.36667,-25
33.37500,-25
33.38333,-25
33.39167,-25
33.40000,-25
33.40833,-24
33.41667,-24
33.42500,-24
33.43333,-23
33.44167,-23
33.45000,-23
33.45833,-24
33.46667,-24
33.47500,-24
33.48333,-24
33.49167,-24
33.50000,-24
33.50833,-24
33.51667,-24
33.52500,-25
33.53333,-24
33.54167,-24
33.55000,-24
33.55833,-24
33.56667,-24
33.57500,-24
33.58333,-24
33.59167,-24
33.60000,-24
33.60833,-24
33.61667,-23
33.62500,-24
33.63333,-24
33.64167,-25
33.65000,-25
33.65833,-24
33.66667,-24
33.67500,-24
33.68333,-24
33.69167,-23
33.70000,-23
33.70833,-23
33.71667,-24
33.72500,-24
33.73333,-24
33.74167,-24
33.75000,-24
33.75833,-24
33.76667,-24
33.77500,-24
33.78333,-24
33.79167,-24
33.80000,-24
33.80833,-24
33.81667,-24
33.82500,-24
33.83333,-24
33.84167,-24
33.85000,-24
33.85833,-23
33.86667,-23
33.87500,-23
33.88333,-23
33.89167,-23
33.90000,-23
33.90833,-23
33.91667,-24
33.92500,-24
33.93333,-24
33.94167,-24
33.95000,-24
33.95833,-23
33.96667,-24
33.97500,-24
33.98333,-24
33.99167,-24
34.00000,-24
34.00833,-24
34.01667,-24
34.02500,-24
34.03333,-24
34.04167,-24
34.05000,-24
34.05833,-24
34.06667,-24
34.07500,-24
34.08333,-24
34.09167,-24
34.10000,-24
34.10833,-24
34.11667,-24
34.12500,-24
34.13333,-24
34.14167,-24
34.15000,-24
34.15833,-24
34.16667,-24
34.17500,-24
34.18333,-23
34.19167,-23
34.20000,-23
34.20833,-23
34.21667,-23
34.22500,-23
34.23333,-23
34.24167,-23
34.25000,-22
34.25833,-22
34.26667,-22
34.27500,-22
34.28333,-22
34.29167,-22
34.30000,-22
34.30833,-22
34.31667,-22
34.32500,-22
34.33333,-22
34.34167,-22
34.35000,-23
34.35833,-23
34.36667,-23
34.37500,-23
34.38333,-23
34.39167,-23
34.40000,-23
34.40833,-23
34.41667,-23
34.42500,-23
34.43333,-23
34.44167,-23
34.45000,-22
34.45833,-22
34.46667,-22
34.47500,-23
34.48333,-23
34.49167,-23
34.50000,-24
34.50833,-24
34.51667,-24
34.52500,-24
34.53333,-24
34.54167,-24
34.55000,-24
34.55833,-24
34.56667,-24
34.57500,-24
34.58333,-23
34.59167,-23
34.60000,-23
34.60833,-23
34.61667,-23
34.62500,-23
34.63333,-23
34.64167,-22
34.65000,-22
34.65833,-22
34.66667,-22
34.67500,-22
34.68333,-22
34.69167,-22
34.70000,-23
34.70833,-23
34.71667,-23
34.72500,-22
34.73333,-22
34.74167,-22
34.75000,-22
34.75833,-22
34.76667,-22
34.77500,-22
34.78333,-23
34.79167,-23
34.80000,-23
34.80833,-23
34.81667,-23
34.82500,-22
34.83333,-22
34.84167,-22
34.85000,-21
34.85833,-21
34.86667,-21
34.87500,-21
34.88333,-21
34.89167,-22
34.90000,-22
34.90833,-22
34.91667,-22
34.92500,-22
34.93333,-22
34.94167,-22
34.95000,-22
34.95833,-22
34.96667,-22
34.97500,-22
34.98333,-22
34.99167,-23
35.00000,-23
35.00833,-23
35.01667,-23
35.02500,-23
35.03333,-23
35.04167,-22
35.05000,-22
35.05833,-23
35.06667,-23
35.07500,-23
35.08333,-23
35.09167,-23
35.10000,-23
35.10833,-23
35.11667,-23
35.12500,-24
35.13333,-24
35.14167,-24
35.15000,-24
35.15833,-25
35.16667,-25
35.17500,-24
35.18333,-24
35.19167,-24
35.20000,-24
35.20833,-24
35.21667,-23
35.22500,-23
35.23333,-23
35.24167,-23
35.25000,-23
35.25833,-23
35.26667,-23
35.27500,-23
35.28333,-23
35.29167,-24
35.30000,-24
35.30833,-24
35.31667,-24
35.32500,-24
35.33333,-24
35.34167,-24
35.35000,-24
35.35833,-24
35.36667,-24
35.37500,-24
35.38333,-24
35.39167,-24
35.40000,-24
35.40833,-24
35.41667,-24
35.42500,-24
35.43333,-24
35.44167,-24
35.45000,-24
35.45833,-24
35.46667,-25
35.47500,-25
35.48333,-25
35.49167,-25
35.50000,-25
35.50833,-24
35.51667,-24
35.52500,-24
35.53333,-25
35.54167,-25
35.55000,-25
35.55833,-25
35.56667,-25
35.57500,-24
35.58333,-24
35.59167,-24
35.60000,-24
35.60833,-24
35.61667,-24
35.62500,-24
35.63333,-25
35.64167,-25
35.65000,-25
35.65833,-25
35.66667,-25
35.67500,-25
35.68333,-25
35.69167,-25
35.70000,-25
35.70833,-25
35.71667,-24
35.72500,-24
35.73333,-24
35.74167,-25
35.75000,-25
35.75833,-25
35.76667,-25
35.77500,-25
35.78333,-25
35.79167,-25
35.80000,-25
35.80833,-25
35.81667,-24
35.82500,-25
35.83333,-25
35.84167,-24
35.85000,-25
35.85833,-25
35.86667,-24
35.87500,-24
35.88333,-25
35.89167,-25
35.90000,-25
35.90833,-25
35.91667,-25
35.92500,-25
35.93333,-25
35.94167,-25
35.95000,-25
35.95833,-25
35.96667,-25
35.97500,-25
35.98333,-25
35.99167,-25
36.00000,-24
36.00833,-24
36.01667,-25
36.02500,-25
36.03333,-25
36.04167,-25
36.05000,-25
36.05833,-25
36.06667,-25
36.07500,-25
36.08333,-25
36.09167,-24
36.10000,-24
36.10833,-24
36.11667,-24
36.12500,-24
36.13333,-24
36.14167,-24
36.15000,-24
36.15833,-25
36.16667,-25
36.17500,-25
36.18333,-24
36.19167,-24
36.20000,-24
36.20833,-24
36.21667,-24
36.22500,-24
36.23333,-24
36.24167,-24
36.25000,-24
36.25833,-25
36.26667,-25
36.27500,-25
36.28333,-25
36.29167,-25
36.30000,-25
36.30833,-25
36.31667,-25
36.32500,-25
36.33333,-24
36.34167,-25
36.35000,-25
36.35833,-25
36.36667,-25
36.37500,-26
36.38333,-25
36.39167,-25
36.40000,-25
36.40833,-26
36.41667,-26
36.42500,-26
36.43333,-26
36.44167,-26
36.45000,-26
36.45833,-26
36.46667,-26
36.47500,-26
36.48333,-26
36.49167,-26
36.50000,-26
36.50833,-25
36.51667,-25
36.52500,-26
36.53333,-26
36.54167,-26
36.55000,-26
36.55833,-26
36.56667,-26
36.57500,-26
36.58333,-26
36.59167,-26
36.60000,-26
36.60833,-26
36.61667,-26
36.62500,-26
36.63333,-25
36.64167,-25
36.65000,-25
36.65833,-25
36.66667,-25
36.67500,-25
36.68333,-25
36.69167,-24
36.70000,-24
36.70833,-24
36.71667,-25
36.72500,-24
36.73333,-24
36.74167,-24
36.75000,-24
36.75833,-24
36.76667,-24
36.77500,-24
36.78333,-24
36.79167,-25
36.80000,-25
36.80833,-25
36.81667,-25
36.82500,-25
36.83333,-25
36.84167,-25
36.85000,-25
36.85833,-24
36.86667,-24
36.87500,-25
36.88333,-25
36.89167,-25
36.90000,-25
36.90833,-25
36.91667,-24
36.92500,-24
36.93333,-24
36.94167,-24
36.95000,-25
36.95833,-25
36.96667,-25
36.97500,-24
36.98333,-24
36.99167,-24
37.00000,-24
37.00833,-24
37.01667,-24
37.02500,-24
37.03333,-24
37.04167,-24
37.05000,-24
37.05833,-24
37.06667,-24
37.07500,-24
37.08333,-25
37.09167,-25
37.10000,-25
37.10833,-25
37.11667,-25
37.12500,-25
37.13333,-25
37.14167,-25
37.15000,-25
37.15833,-25
37.16667,-25
37.17500,-25
37.18333,-25
37.19167,-24
37.20000,-24
37.20833,-24
37.21667,-24
37.22500,-24
37.23333,-24
37.24167,-25
37.25000,-25
37.25833,-25
37.26667,-25
37.27500,-24
37.28333,-24
37.29167,-24
37.30000,-24
37.30833,-25
37.31667,-25
37.32500,-24
37.33333,-24
37.34167,-24
37.35000,-24
37.35833,-24
37.36667,-24
37.37500,-25
37.38333,-25
37.39167,-25
37.40000,-25
37.40833,-25
37.41667,-25
37.42500,-25
37.43333,-25
37.44167,-25
37.45000,-25
37.45833,-25
37.46667,-25
37.47500,-25
37.48333,-25
37.49167,-25
37.50000,-25
37.50833,-25
37.51667,-25
37.52500,-25
37.53333,-26
37.54167,-26
37.55000,-26
37.55833,-25
37.56667,-25
37.57500,-25
37.58333,-24
37.59167,-24
37.60000,-24
37.60833,-24
37.61667,-24
37.62500,-24
37.63333,-24
37.64167,-25
37.65000,-25
37.65833,-25
37.66667,-25
37.67500,-25
37.68333,-25
37.69167,-26
37.70000,-26
37.70833,-26
37.71667,-26
37.72500,-26
37.73333,-26
37.74167,-26
37.75000,-26
37.75833,-25
37.76667,-25
37.77500,-25
37.78333,-25
37.79167,-25
37.80000,-25
37.80833,-25
37.81667,-25
37.82500,-24
37.83333,-24
37.84167,-25
37.85000,-25
37.85833,-24
37.86667,-24
37.87500,-25
37.88333,-25
37.89167,-25
37.90000,-25
37.90833,-25
37.91667,-25
37.92500,-25
37.93333,-25
37.94167,-25
37.95000,-25
37.95833,-25
37.96667,-25
37.97500,-25
37.98333,-25
37.99167,-25
38.00000,-24
38.00833,-24
38.01667,-24
38.02500,-24
38.03333,-24
38.04167,-24
38.05000,-24
38.05833,-24
38.06667,-24
38.07500,-24
38.08333,-24
38.09167,-24
38.10000,-24
38.10833,-24
38.11667,-24
38.12500,-24
38.13333,-24
38.14167,-24
38.15000,-24
38.15833,-24
38.16667,-24
38.17500,-24
38.18333,-24
38.19167,-25
38.20000,-25
38.20833,-25
38.21667,-25
38.22500,-25
38.23333,-25
38.24167,-24
38.25000,-24
38.25833,-24
38.26667,-24
38.27500,-23
38.28333,-23
38.29167,-24
38.30000,-23
38.30833,-23
38.31667,-23
38.32500,-23
38.33333,-23
38.34167,-23
38.35000,-23
38.35833,-23
38.36667,-23
38.37500,-23
38.38333,-23
38.39167,-23
38.40000,-23
38.40833,-23
38.41667,-23
38.42500,-23
38.43333,-23
38.44167,-23
38.45000,-22
38.45833,-22
38.46667,-22
38.47500,-22
38.48333,-22
38.49167,-22
38.50000,-22
38.50833,-22
38.51667,-22
38.52500,-21
38.53333,-21
38.54167,-22
38.55000,-22
38.55833,-23
38.56667,-23
38.57500,-23
38.58333,-23
38.59167,-23
38.60000,-23
38.60833,-23
38.61667,-23
38.62500,-23
38.63333,-23
38.64167,-23
38.65000,-23
38.65833,-22
38.66667,-22
38.67500,-22
38.68333,-22
38.69167,-22
38.70000,-21
38.70833,-21
38.71667,-21
38.72500,-21
38.73333,-21
38.74167,-21
38.75000,-21
38.75833,-21
38.76667,-21
38.77500,-21
38.78333,-22
38.79167,-22
38.80000,-22
38.80833,-22
38.81667,-22
38.82500,-22
38.83333,-22
38.84167,-22
38.85000,-22
38.85833,-22
38.86667,-22
38.87500,-22
38.88333,-22
38.89167,-22
38.90000,-22
38.90833,-23
38.91667,-23
38.92500,-23
38.93333,-23
38.94167,-22
38.95000,-22
38.95833,-22
38.96667,-22
38.97500,-23
38.98333,-23
38.99167,-23
39.00000,-23
39.00833,-23
39.01667,-23
39.02500,-23
39.03333,-23
39.04167,-23
39.05000,-23
39.05833,-24
39.06667,-24
39.07500,-24
39.08333,-24
39.09167,-24
39.10000,-24
39.10833,-24
39.11667,-23
39.12500,-23
39.13333,-23
39.14167,-23
39.15000,-23
39.15833,-23
39.16667,-23
39.17500,-23
39.18333,-24
39.19167,-24
39.20000,-24
39.20833,-24
39.21667,-25
39.22500,-24
39.23333,-24
39.24167,-24
39.25000,-25
39.25833,-25
39.26667,-25
39.27500,-25
39.28333,-25
39.29167,-25
39.30000,-24
39.30833,-24
39.31667,-24
39.32500,-24
39.33333,-24
39.34167,-25
39.35000,-25
39.35833,-25
39.36667,-25
39.37500,-25
39.38333,-25
39.39167,-25
39.40000,-25
39.40833,-25
39.41667,-25
39.42500,-25
39.43333,-25
39.44167,-25
39.45000,-25
39.45833,-25
39.46667,-25
39.47500,-25
39.48333,-25
39.49167,-26
39.50000,-26
39.50833,-26
39.51667,-26
39.52500,-25
39.53333,-25
39.54167,-25
39.55000,-25
39.55833,-26
39.56667,-26
39.57500,-26
39.58333,-26
39.59167,-26
39.60000,-26
39.60833,-26
39.61667,-26
39.62500,-25
39.63333,-25
39.64167,-25
39.65000,-25
39.65833,-25
39.66667,-25
39.67500,-26
39.68333,-26
39.69167,-26
39.70000,-26
39.70833,-26
39.71667,-26
39.72500,-26
39.73333,-26
39.74167,-26
39.75000,-26
39.75833,-26
39.76667,-26
39.77500,-26
39.78333,-26
39.79167,-26
39.80000,-26
39.80833,-26
39.81667,-26
39.82500,-25
39.83333,-25
39.84167,-25
39.85000,-25
39.85833,-25
39.86667,-25
39.87500,-25
39.88333,-25
39.89167,-25
39.90000,-25
39.90833,-25
39.91667,-26
39.92500,-26
39.93333,-26
39.94167,-26
39.95000,-26
39.95833,-26
39.96667,-26
39.97500,-26
39.98333,-26
39.99167,-26
40.00000,-26

[Fraction Collection Report]
# of Fractions,0
