[Header]
Application Name,LabSolutions
Version,5.97 SP1
Data File Name,C:\Users\cremerlab\Desktop\griffin\2021-03-17_REL606_NCM3722_turnover\batch_3172021_004_009.lcd
Output Date,3/17/2021
Output Time,9:36:36 PM

[File Information]
Type,Data File
Generated,3/17/2021 8:51:17 PM
Generated by,System Administrator
Modified,3/17/2021 9:36:36 PM
Modified by,System Administrator

[Sample Information]
Operator Name,System Administrator
Acquired,3/17/2021 8:51:35 PM
Sample Type,1:Standard
Level,4
Sample Name,2021-03-17_NCM3722_NC_sample004
Sample ID,004
ISTD Amount1,1
ISTD Amount2,1
ISTD Amount3,1
ISTD Amount4,1
ISTD Amount5,1
ISTD Amount6,1
ISTD Amount7,1
ISTD Amount8,1
ISTD Amount9,1
ISTD Amount10,1
ISTD Amount11,1
ISTD Amount12,1
ISTD Amount13,1
ISTD Amount14,1
ISTD Amount15,1
ISTD Amount16,1
ISTD Amount17,1
ISTD Amount18,1
ISTD Amount19,1
ISTD Amount20,1
ISTD Amount21,1
ISTD Amount22,1
ISTD Amount23,1
ISTD Amount24,1
ISTD Amount25,1
ISTD Amount26,1
ISTD Amount27,1
ISTD Amount28,1
ISTD Amount29,1
ISTD Amount30,1
ISTD Amount31,1
ISTD Amount32,1
Sample Amount,1
Dilution Factor,1
Vial#,31
Injection Volume,20

[Original Files]
Data File,C:\Users\cremerlab\Desktop\griffin\2021-03-17_REL606_NCM3722_turnover\batch_3172021_004_009.lcd
Method File,C:\LabSolutions\Data\Project1\organicacidsetc2.lcm
Batch File,C:\Users\cremerlab\Desktop\griffin\2021-03-17_REL606_NCM3722_turnover\batch.lcb
Report Format File,c:\LabSolutions\System\DEFAULT.lsr

[File Description]


[Configuration]
Instrument Name,HPLC-PC-Instrument1
Instrument #,1
Line #,1
# of Detectors,2
Detector ID,Detector A,Detector B
Detector Name,Detector A,Detector B
# of Channels,1,1

[LC Chromatogram(Detector B-Ch1)]
Interval(msec),500
# of Points,5401
Start Time(min),0.000
End Time(min),45.000
Intensity Units,mV
Intensity Multiplier,0.001
R.Time (min),Intensity
0.00000,-5
0.00833,-5
0.01667,0
0.02500,1
0.03333,1
0.04167,-0
0.05000,-1
0.05833,-3
0.06667,-3
0.07500,-3
0.08333,-3
0.09167,-3
0.10000,-3
0.10833,-2
0.11667,-2
0.12500,-1
0.13333,-1
0.14167,-0
0.15000,-0
0.15833,-0
0.16667,-1
0.17500,-1
0.18333,-1
0.19167,-1
0.20000,-1
0.20833,-2
0.21667,-2
0.22500,-1
0.23333,-1
0.24167,-0
0.25000,-0
0.25833,0
0.26667,0
0.27500,-0
0.28333,-0
0.29167,-1
0.30000,-1
0.30833,-1
0.31667,-2
0.32500,-2
0.33333,-2
0.34167,-3
0.35000,-3
0.35833,-3
0.36667,-3
0.37500,-3
0.38333,-4
0.39167,-4
0.40000,-4
0.40833,-4
0.41667,-4
0.42500,-4
0.43333,-4
0.44167,-4
0.45000,-4
0.45833,-5
0.46667,-5
0.47500,-5
0.48333,-5
0.49167,-5
0.50000,-5
0.50833,-4
0.51667,-4
0.52500,-4
0.53333,-4
0.54167,-4
0.55000,-3
0.55833,-3
0.56667,-2
0.57500,-1
0.58333,0
0.59167,1
0.60000,2
0.60833,1
0.61667,1
0.62500,0
0.63333,-1
0.64167,-2
0.65000,-4
0.65833,-6
0.66667,-9
0.67500,-11
0.68333,-13
0.69167,-15
0.70000,-17
0.70833,-18
0.71667,-19
0.72500,-19
0.73333,-20
0.74167,-20
0.75000,-20
0.75833,-19
0.76667,-19
0.77500,-19
0.78333,-19
0.79167,-18
0.80000,-18
0.80833,-18
0.81667,-17
0.82500,-17
0.83333,-17
0.84167,-16
0.85000,-16
0.85833,-15
0.86667,-14
0.87500,-14
0.88333,-13
0.89167,-13
0.90000,-13
0.90833,-13
0.91667,-13
0.92500,-13
0.93333,-13
0.94167,-13
0.95000,-13
0.95833,-13
0.96667,-14
0.97500,-14
0.98333,-14
0.99167,-14
1.00000,-14
1.00833,-14
1.01667,-13
1.02500,-13
1.03333,-13
1.04167,-13
1.05000,-13
1.05833,-14
1.06667,-14
1.07500,-14
1.08333,-14
1.09167,-13
1.10000,-13
1.10833,-13
1.11667,-13
1.12500,-13
1.13333,-13
1.14167,-13
1.15000,-14
1.15833,-14
1.16667,-14
1.17500,-14
1.18333,-14
1.19167,-14
1.20000,-14
1.20833,-14
1.21667,-14
1.22500,-14
1.23333,-14
1.24167,-14
1.25000,-14
1.25833,-14
1.26667,-15
1.27500,-15
1.28333,-15
1.29167,-15
1.30000,-15
1.30833,-15
1.31667,-16
1.32500,-16
1.33333,-16
1.34167,-16
1.35000,-16
1.35833,-17
1.36667,-17
1.37500,-17
1.38333,-17
1.39167,-17
1.40000,-17
1.40833,-17
1.41667,-17
1.42500,-18
1.43333,-18
1.44167,-18
1.45000,-18
1.45833,-18
1.46667,-18
1.47500,-18
1.48333,-18
1.49167,-18
1.50000,-18
1.50833,-19
1.51667,-19
1.52500,-19
1.53333,-19
1.54167,-19
1.55000,-19
1.55833,-19
1.56667,-19
1.57500,-19
1.58333,-19
1.59167,-19
1.60000,-19
1.60833,-19
1.61667,-19
1.62500,-20
1.63333,-20
1.64167,-20
1.65000,-20
1.65833,-20
1.66667,-20
1.67500,-20
1.68333,-20
1.69167,-21
1.70000,-22
1.70833,-22
1.71667,-22
1.72500,-22
1.73333,-22
1.74167,-22
1.75000,-22
1.75833,-23
1.76667,-23
1.77500,-23
1.78333,-23
1.79167,-23
1.80000,-23
1.80833,-23
1.81667,-23
1.82500,-23
1.83333,-23
1.84167,-23
1.85000,-23
1.85833,-24
1.86667,-24
1.87500,-24
1.88333,-24
1.89167,-24
1.90000,-24
1.90833,-24
1.91667,-24
1.92500,-24
1.93333,-24
1.94167,-24
1.95000,-24
1.95833,-25
1.96667,-25
1.97500,-25
1.98333,-26
1.99167,-26
2.00000,-26
2.00833,-26
2.01667,-25
2.02500,-25
2.03333,-25
2.04167,-25
2.05000,-25
2.05833,-25
2.06667,-25
2.07500,-25
2.08333,-25
2.09167,-26
2.10000,-26
2.10833,-26
2.11667,-26
2.12500,-26
2.13333,-26
2.14167,-26
2.15000,-26
2.15833,-27
2.16667,-27
2.17500,-27
2.18333,-28
2.19167,-28
2.20000,-28
2.20833,-28
2.21667,-28
2.22500,-28
2.23333,-28
2.24167,-29
2.25000,-29
2.25833,-29
2.26667,-29
2.27500,-29
2.28333,-29
2.29167,-29
2.30000,-29
2.30833,-29
2.31667,-29
2.32500,-29
2.33333,-30
2.34167,-30
2.35000,-30
2.35833,-30
2.36667,-30
2.37500,-30
2.38333,-31
2.39167,-31
2.40000,-31
2.40833,-31
2.41667,-31
2.42500,-31
2.43333,-31
2.44167,-31
2.45000,-31
2.45833,-32
2.46667,-32
2.47500,-32
2.48333,-32
2.49167,-32
2.50000,-32
2.50833,-32
2.51667,-32
2.52500,-32
2.53333,-32
2.54167,-32
2.55000,-32
2.55833,-32
2.56667,-32
2.57500,-32
2.58333,-32
2.59167,-32
2.60000,-32
2.60833,-32
2.61667,-33
2.62500,-33
2.63333,-33
2.64167,-34
2.65000,-34
2.65833,-34
2.66667,-34
2.67500,-34
2.68333,-34
2.69167,-34
2.70000,-34
2.70833,-35
2.71667,-35
2.72500,-36
2.73333,-36
2.74167,-36
2.75000,-37
2.75833,-37
2.76667,-37
2.77500,-37
2.78333,-37
2.79167,-37
2.80000,-37
2.80833,-37
2.81667,-36
2.82500,-36
2.83333,-37
2.84167,-37
2.85000,-37
2.85833,-37
2.86667,-37
2.87500,-37
2.88333,-37
2.89167,-37
2.90000,-37
2.90833,-37
2.91667,-37
2.92500,-37
2.93333,-37
2.94167,-37
2.95000,-38
2.95833,-38
2.96667,-38
2.97500,-39
2.98333,-39
2.99167,-39
3.00000,-39
3.00833,-39
3.01667,-39
3.02500,-39
3.03333,-39
3.04167,-39
3.05000,-39
3.05833,-39
3.06667,-40
3.07500,-40
3.08333,-40
3.09167,-40
3.10000,-40
3.10833,-40
3.11667,-40
3.12500,-40
3.13333,-40
3.14167,-40
3.15000,-40
3.15833,-41
3.16667,-41
3.17500,-41
3.18333,-41
3.19167,-41
3.20000,-41
3.20833,-41
3.21667,-41
3.22500,-41
3.23333,-41
3.24167,-41
3.25000,-41
3.25833,-42
3.26667,-42
3.27500,-41
3.28333,-42
3.29167,-42
3.30000,-42
3.30833,-42
3.31667,-42
3.32500,-42
3.33333,-42
3.34167,-42
3.35000,-42
3.35833,-43
3.36667,-43
3.37500,-43
3.38333,-43
3.39167,-43
3.40000,-43
3.40833,-43
3.41667,-43
3.42500,-43
3.43333,-44
3.44167,-44
3.45000,-44
3.45833,-44
3.46667,-44
3.47500,-44
3.48333,-44
3.49167,-45
3.50000,-45
3.50833,-45
3.51667,-44
3.52500,-44
3.53333,-44
3.54167,-44
3.55000,-45
3.55833,-45
3.56667,-45
3.57500,-45
3.58333,-45
3.59167,-45
3.60000,-45
3.60833,-45
3.61667,-46
3.62500,-46
3.63333,-46
3.64167,-46
3.65000,-46
3.65833,-47
3.66667,-47
3.67500,-47
3.68333,-47
3.69167,-47
3.70000,-48
3.70833,-48
3.71667,-48
3.72500,-48
3.73333,-48
3.74167,-48
3.75000,-48
3.75833,-48
3.76667,-47
3.77500,-47
3.78333,-47
3.79167,-47
3.80000,-47
3.80833,-48
3.81667,-48
3.82500,-48
3.83333,-48
3.84167,-49
3.85000,-49
3.85833,-49
3.86667,-49
3.87500,-48
3.88333,-49
3.89167,-49
3.90000,-49
3.90833,-49
3.91667,-49
3.92500,-49
3.93333,-49
3.94167,-49
3.95000,-49
3.95833,-49
3.96667,-49
3.97500,-49
3.98333,-49
3.99167,-50
4.00000,-50
4.00833,-51
4.01667,-51
4.02500,-51
4.03333,-51
4.04167,-51
4.05000,-51
4.05833,-51
4.06667,-51
4.07500,-51
4.08333,-52
4.09167,-52
4.10000,-52
4.10833,-52
4.11667,-52
4.12500,-52
4.13333,-52
4.14167,-52
4.15000,-53
4.15833,-53
4.16667,-53
4.17500,-53
4.18333,-53
4.19167,-53
4.20000,-53
4.20833,-53
4.21667,-53
4.22500,-53
4.23333,-53
4.24167,-53
4.25000,-53
4.25833,-53
4.26667,-53
4.27500,-53
4.28333,-53
4.29167,-53
4.30000,-53
4.30833,-54
4.31667,-54
4.32500,-54
4.33333,-54
4.34167,-54
4.35000,-54
4.35833,-54
4.36667,-54
4.37500,-54
4.38333,-53
4.39167,-54
4.40000,-54
4.40833,-54
4.41667,-55
4.42500,-55
4.43333,-55
4.44167,-55
4.45000,-55
4.45833,-55
4.46667,-55
4.47500,-55
4.48333,-55
4.49167,-55
4.50000,-55
4.50833,-55
4.51667,-56
4.52500,-56
4.53333,-56
4.54167,-57
4.55000,-56
4.55833,-56
4.56667,-56
4.57500,-56
4.58333,-56
4.59167,-56
4.60000,-56
4.60833,-56
4.61667,-56
4.62500,-56
4.63333,-56
4.64167,-56
4.65000,-56
4.65833,-57
4.66667,-57
4.67500,-57
4.68333,-58
4.69167,-58
4.70000,-58
4.70833,-58
4.71667,-58
4.72500,-59
4.73333,-59
4.74167,-59
4.75000,-59
4.75833,-59
4.76667,-59
4.77500,-59
4.78333,-59
4.79167,-60
4.80000,-60
4.80833,-60
4.81667,-60
4.82500,-60
4.83333,-60
4.84167,-61
4.85000,-61
4.85833,-61
4.86667,-61
4.87500,-62
4.88333,-62
4.89167,-62
4.90000,-61
4.90833,-61
4.91667,-61
4.92500,-61
4.93333,-62
4.94167,-62
4.95000,-62
4.95833,-62
4.96667,-61
4.97500,-62
4.98333,-62
4.99167,-62
5.00000,-62
5.00833,-62
5.01667,-62
5.02500,-62
5.03333,-62
5.04167,-62
5.05000,-63
5.05833,-63
5.06667,-63
5.07500,-63
5.08333,-63
5.09167,-63
5.10000,-63
5.10833,-63
5.11667,-64
5.12500,-64
5.13333,-64
5.14167,-64
5.15000,-64
5.15833,-64
5.16667,-65
5.17500,-64
5.18333,-64
5.19167,-64
5.20000,-64
5.20833,-64
5.21667,-64
5.22500,-64
5.23333,-65
5.24167,-65
5.25000,-65
5.25833,-65
5.26667,-65
5.27500,-65
5.28333,-66
5.29167,-66
5.30000,-66
5.30833,-66
5.31667,-67
5.32500,-67
5.33333,-67
5.34167,-67
5.35000,-67
5.35833,-67
5.36667,-67
5.37500,-67
5.38333,-67
5.39167,-67
5.40000,-67
5.40833,-67
5.41667,-67
5.42500,-67
5.43333,-67
5.44167,-68
5.45000,-68
5.45833,-68
5.46667,-68
5.47500,-68
5.48333,-68
5.49167,-68
5.50000,-69
5.50833,-69
5.51667,-70
5.52500,-70
5.53333,-70
5.54167,-70
5.55000,-70
5.55833,-69
5.56667,-70
5.57500,-70
5.58333,-70
5.59167,-70
5.60000,-70
5.60833,-70
5.61667,-70
5.62500,-70
5.63333,-70
5.64167,-71
5.65000,-71
5.65833,-71
5.66667,-71
5.67500,-71
5.68333,-72
5.69167,-72
5.70000,-73
5.70833,-73
5.71667,-73
5.72500,-73
5.73333,-73
5.74167,-73
5.75000,-73
5.75833,-73
5.76667,-73
5.77500,-73
5.78333,-73
5.79167,-73
5.80000,-73
5.80833,-74
5.81667,-74
5.82500,-74
5.83333,-74
5.84167,-75
5.85000,-75
5.85833,-74
5.86667,-74
5.87500,-74
5.88333,-75
5.89167,-75
5.90000,-75
5.90833,-75
5.91667,-75
5.92500,-75
5.93333,-75
5.94167,-75
5.95000,-75
5.95833,-75
5.96667,-75
5.97500,-76
5.98333,-75
5.99167,-75
6.00000,-76
6.00833,-76
6.01667,-76
6.02500,-76
6.03333,-76
6.04167,-76
6.05000,-76
6.05833,-76
6.06667,-76
6.07500,-76
6.08333,-76
6.09167,-76
6.10000,-77
6.10833,-77
6.11667,-77
6.12500,-77
6.13333,-77
6.14167,-77
6.15000,-77
6.15833,-77
6.16667,-77
6.17500,-78
6.18333,-78
6.19167,-78
6.20000,-78
6.20833,-78
6.21667,-79
6.22500,-79
6.23333,-79
6.24167,-79
6.25000,-79
6.25833,-79
6.26667,-79
6.27500,-79
6.28333,-79
6.29167,-79
6.30000,-79
6.30833,-80
6.31667,-80
6.32500,-80
6.33333,-79
6.34167,-80
6.35000,-80
6.35833,-80
6.36667,-80
6.37500,-80
6.38333,-80
6.39167,-80
6.40000,-81
6.40833,-81
6.41667,-81
6.42500,-81
6.43333,-81
6.44167,-81
6.45000,-81
6.45833,-81
6.46667,-81
6.47500,-81
6.48333,-81
6.49167,-81
6.50000,-81
6.50833,-82
6.51667,-82
6.52500,-82
6.53333,-82
6.54167,-82
6.55000,-82
6.55833,-82
6.56667,-82
6.57500,-82
6.58333,-82
6.59167,-83
6.60000,-83
6.60833,-83
6.61667,-83
6.62500,-83
6.63333,-83
6.64167,-83
6.65000,-83
6.65833,-82
6.66667,-83
6.67500,-83
6.68333,-83
6.69167,-83
6.70000,-83
6.70833,-83
6.71667,-84
6.72500,-84
6.73333,-84
6.74167,-84
6.75000,-84
6.75833,-84
6.76667,-85
6.77500,-85
6.78333,-85
6.79167,-85
6.80000,-85
6.80833,-85
6.81667,-85
6.82500,-85
6.83333,-86
6.84167,-85
6.85000,-85
6.85833,-85
6.86667,-86
6.87500,-86
6.88333,-86
6.89167,-86
6.90000,-86
6.90833,-86
6.91667,-86
6.92500,-86
6.93333,-86
6.94167,-86
6.95000,-86
6.95833,-87
6.96667,-87
6.97500,-87
6.98333,-87
6.99167,-87
7.00000,-88
7.00833,-88
7.01667,-88
7.02500,-87
7.03333,-88
7.04167,-88
7.05000,-88
7.05833,-89
7.06667,-89
7.07500,-89
7.08333,-89
7.09167,-89
7.10000,-89
7.10833,-89
7.11667,-88
7.12500,-88
7.13333,-89
7.14167,-89
7.15000,-89
7.15833,-89
7.16667,-89
7.17500,-89
7.18333,-89
7.19167,-89
7.20000,-89
7.20833,-90
7.21667,-90
7.22500,-90
7.23333,-90
7.24167,-90
7.25000,-90
7.25833,-91
7.26667,-91
7.27500,-91
7.28333,-91
7.29167,-91
7.30000,-91
7.30833,-91
7.31667,-91
7.32500,-91
7.33333,-91
7.34167,-92
7.35000,-92
7.35833,-91
7.36667,-91
7.37500,-91
7.38333,-91
7.39167,-92
7.40000,-92
7.40833,-92
7.41667,-92
7.42500,-92
7.43333,-92
7.44167,-93
7.45000,-93
7.45833,-93
7.46667,-93
7.47500,-93
7.48333,-93
7.49167,-93
7.50000,-93
7.50833,-93
7.51667,-93
7.52500,-93
7.53333,-93
7.54167,-93
7.55000,-93
7.55833,-94
7.56667,-94
7.57500,-94
7.58333,-94
7.59167,-94
7.60000,-94
7.60833,-95
7.61667,-95
7.62500,-95
7.63333,-95
7.64167,-95
7.65000,-95
7.65833,-95
7.66667,-95
7.67500,-95
7.68333,-95
7.69167,-96
7.70000,-96
7.70833,-96
7.71667,-96
7.72500,-96
7.73333,-96
7.74167,-96
7.75000,-96
7.75833,-96
7.76667,-96
7.77500,-96
7.78333,-96
7.79167,-96
7.80000,-96
7.80833,-96
7.81667,-97
7.82500,-97
7.83333,-97
7.84167,-97
7.85000,-97
7.85833,-97
7.86667,-98
7.87500,-98
7.88333,-98
7.89167,-98
7.90000,-98
7.90833,-98
7.91667,-98
7.92500,-99
7.93333,-99
7.94167,-99
7.95000,-98
7.95833,-98
7.96667,-98
7.97500,-98
7.98333,-98
7.99167,-99
8.00000,-99
8.00833,-99
8.01667,-99
8.02500,-99
8.03333,-100
8.04167,-100
8.05000,-100
8.05833,-100
8.06667,-100
8.07500,-100
8.08333,-100
8.09167,-101
8.10000,-101
8.10833,-101
8.11667,-101
8.12500,-101
8.13333,-101
8.14167,-101
8.15000,-101
8.15833,-101
8.16667,-101
8.17500,-102
8.18333,-102
8.19167,-102
8.20000,-102
8.20833,-102
8.21667,-102
8.22500,-102
8.23333,-103
8.24167,-103
8.25000,-103
8.25833,-103
8.26667,-103
8.27500,-103
8.28333,-103
8.29167,-103
8.30000,-104
8.30833,-104
8.31667,-104
8.32500,-104
8.33333,-104
8.34167,-104
8.35000,-104
8.35833,-104
8.36667,-104
8.37500,-104
8.38333,-104
8.39167,-104
8.40000,-104
8.40833,-104
8.41667,-105
8.42500,-105
8.43333,-105
8.44167,-105
8.45000,-105
8.45833,-105
8.46667,-105
8.47500,-105
8.48333,-105
8.49167,-105
8.50000,-105
8.50833,-105
8.51667,-105
8.52500,-106
8.53333,-106
8.54167,-106
8.55000,-106
8.55833,-106
8.56667,-106
8.57500,-106
8.58333,-107
8.59167,-107
8.60000,-107
8.60833,-107
8.61667,-107
8.62500,-107
8.63333,-107
8.64167,-107
8.65000,-108
8.65833,-108
8.66667,-108
8.67500,-108
8.68333,-108
8.69167,-108
8.70000,-108
8.70833,-108
8.71667,-108
8.72500,-108
8.73333,-108
8.74167,-108
8.75000,-108
8.75833,-108
8.76667,-108
8.77500,-108
8.78333,-109
8.79167,-109
8.80000,-109
8.80833,-109
8.81667,-109
8.82500,-109
8.83333,-109
8.84167,-110
8.85000,-110
8.85833,-110
8.86667,-110
8.87500,-110
8.88333,-110
8.89167,-111
8.90000,-111
8.90833,-111
8.91667,-111
8.92500,-110
8.93333,-110
8.94167,-110
8.95000,-110
8.95833,-110
8.96667,-110
8.97500,-110
8.98333,-111
8.99167,-111
9.00000,-111
9.00833,-111
9.01667,-111
9.02500,-111
9.03333,-110
9.04167,-110
9.05000,-110
9.05833,-111
9.06667,-111
9.07500,-111
9.08333,-112
9.09167,-112
9.10000,-111
9.10833,-111
9.11667,-111
9.12500,-111
9.13333,-111
9.14167,-111
9.15000,-112
9.15833,-112
9.16667,-112
9.17500,-112
9.18333,-112
9.19167,-113
9.20000,-113
9.20833,-113
9.21667,-113
9.22500,-113
9.23333,-113
9.24167,-113
9.25000,-113
9.25833,-113
9.26667,-113
9.27500,-113
9.28333,-113
9.29167,-113
9.30000,-113
9.30833,-113
9.31667,-113
9.32500,-113
9.33333,-113
9.34167,-114
9.35000,-114
9.35833,-114
9.36667,-114
9.37500,-114
9.38333,-114
9.39167,-114
9.40000,-114
9.40833,-115
9.41667,-115
9.42500,-115
9.43333,-115
9.44167,-115
9.45000,-116
9.45833,-116
9.46667,-116
9.47500,-115
9.48333,-115
9.49167,-115
9.50000,-115
9.50833,-115
9.51667,-116
9.52500,-116
9.53333,-116
9.54167,-116
9.55000,-116
9.55833,-116
9.56667,-116
9.57500,-117
9.58333,-117
9.59167,-118
9.60000,-118
9.60833,-118
9.61667,-117
9.62500,-117
9.63333,-118
9.64167,-118
9.65000,-118
9.65833,-118
9.66667,-118
9.67500,-118
9.68333,-118
9.69167,-118
9.70000,-118
9.70833,-118
9.71667,-119
9.72500,-119
9.73333,-119
9.74167,-119
9.75000,-119
9.75833,-119
9.76667,-119
9.77500,-119
9.78333,-119
9.79167,-119
9.80000,-120
9.80833,-120
9.81667,-120
9.82500,-120
9.83333,-120
9.84167,-120
9.85000,-120
9.85833,-120
9.86667,-120
9.87500,-120
9.88333,-120
9.89167,-120
9.90000,-120
9.90833,-120
9.91667,-120
9.92500,-120
9.93333,-120
9.94167,-120
9.95000,-121
9.95833,-120
9.96667,-120
9.97500,-120
9.98333,-121
9.99167,-121
10.00000,-121
10.00833,-121
10.01667,-121
10.02500,-122
10.03333,-122
10.04167,-122
10.05000,-122
10.05833,-122
10.06667,-122
10.07500,-122
10.08333,-122
10.09167,-123
10.10000,-123
10.10833,-123
10.11667,-123
10.12500,-123
10.13333,-123
10.14167,-123
10.15000,-123
10.15833,-124
10.16667,-124
10.17500,-124
10.18333,-124
10.19167,-124
10.20000,-124
10.20833,-125
10.21667,-125
10.22500,-125
10.23333,-125
10.24167,-125
10.25000,-125
10.25833,-125
10.26667,-125
10.27500,-125
10.28333,-125
10.29167,-125
10.30000,-125
10.30833,-125
10.31667,-124
10.32500,-124
10.33333,-123
10.34167,-122
10.35000,-122
10.35833,-121
10.36667,-121
10.37500,-120
10.38333,-119
10.39167,-118
10.40000,-117
10.40833,-117
10.41667,-116
10.42500,-116
10.43333,-115
10.44167,-115
10.45000,-116
10.45833,-116
10.46667,-116
10.47500,-117
10.48333,-118
10.49167,-120
10.50000,-123
10.50833,-128
10.51667,-135
10.52500,-145
10.53333,-159
10.54167,-177
10.55000,-201
10.55833,-233
10.56667,-274
10.57500,-327
10.58333,-393
10.59167,-474
10.60000,-574
10.60833,-693
10.61667,-835
10.62500,-1000
10.63333,-1188
10.64167,-1401
10.65000,-1635
10.65833,-1889
10.66667,-2159
10.67500,-2438
10.68333,-2720
10.69167,-2994
10.70000,-3253
10.70833,-3482
10.71667,-3671
10.72500,-3806
10.73333,-3872
10.74167,-3854
10.75000,-3739
10.75833,-3513
10.76667,-3164
10.77500,-2678
10.78333,-2044
10.79167,-1254
10.80000,-298
10.80833,829
10.81667,2132
10.82500,3614
10.83333,5276
10.84167,7117
10.85000,9135
10.85833,11323
10.86667,13677
10.87500,16185
10.88333,18837
10.89167,21617
10.90000,24509
10.90833,27492
10.91667,30542
10.92500,33631
10.93333,36727
10.94167,39793
10.95000,42790
10.95833,45672
10.96667,48393
10.97500,50903
10.98333,53152
10.99167,55092
11.00000,56677
11.00833,57871
11.01667,58642
11.02500,58969
11.03333,58844
11.04167,58270
11.05000,57264
11.05833,55854
11.06667,54077
11.07500,51979
11.08333,49613
11.09167,47036
11.10000,44304
11.10833,41472
11.11667,38594
11.12500,35717
11.13333,32882
11.14167,30125
11.15000,27475
11.15833,24953
11.16667,22576
11.17500,20353
11.18333,18292
11.19167,16392
11.20000,14652
11.20833,13068
11.21667,11632
11.22500,10336
11.23333,9171
11.24167,8129
11.25000,7198
11.25833,6371
11.26667,5636
11.27500,4986
11.28333,4412
11.29167,3905
11.30000,3458
11.30833,3065
11.31667,2720
11.32500,2417
11.33333,2151
11.34167,1918
11.35000,1713
11.35833,1533
11.36667,1375
11.37500,1236
11.38333,1113
11.39167,1005
11.40000,910
11.40833,826
11.41667,751
11.42500,685
11.43333,627
11.44167,574
11.45000,528
11.45833,486
11.46667,448
11.47500,413
11.48333,382
11.49167,354
11.50000,329
11.50833,305
11.51667,284
11.52500,264
11.53333,246
11.54167,229
11.55000,213
11.55833,199
11.56667,186
11.57500,173
11.58333,161
11.59167,150
11.60000,140
11.60833,130
11.61667,121
11.62500,112
11.63333,104
11.64167,97
11.65000,89
11.65833,82
11.66667,76
11.67500,69
11.68333,63
11.69167,57
11.70000,52
11.70833,46
11.71667,42
11.72500,37
11.73333,33
11.74167,28
11.75000,24
11.75833,20
11.76667,16
11.77500,13
11.78333,9
11.79167,6
11.80000,3
11.80833,-0
11.81667,-3
11.82500,-6
11.83333,-9
11.84167,-12
11.85000,-15
11.85833,-18
11.86667,-20
11.87500,-23
11.88333,-25
11.89167,-27
11.90000,-29
11.90833,-31
11.91667,-33
11.92500,-35
11.93333,-37
11.94167,-38
11.95000,-40
11.95833,-41
11.96667,-43
11.97500,-44
11.98333,-45
11.99167,-47
12.00000,-47
12.00833,-48
12.01667,-50
12.02500,-51
12.03333,-52
12.04167,-53
12.05000,-53
12.05833,-54
12.06667,-55
12.07500,-56
12.08333,-56
12.09167,-57
12.10000,-58
12.10833,-58
12.11667,-59
12.12500,-60
12.13333,-60
12.14167,-61
12.15000,-61
12.15833,-61
12.16667,-61
12.17500,-61
12.18333,-61
12.19167,-62
12.20000,-62
12.20833,-62
12.21667,-63
12.22500,-63
12.23333,-63
12.24167,-63
12.25000,-63
12.25833,-63
12.26667,-63
12.27500,-63
12.28333,-63
12.29167,-63
12.30000,-63
12.30833,-63
12.31667,-63
12.32500,-63
12.33333,-63
12.34167,-63
12.35000,-63
12.35833,-63
12.36667,-63
12.37500,-63
12.38333,-63
12.39167,-63
12.40000,-63
12.40833,-64
12.41667,-64
12.42500,-64
12.43333,-64
12.44167,-64
12.45000,-64
12.45833,-64
12.46667,-65
12.47500,-65
12.48333,-65
12.49167,-65
12.50000,-66
12.50833,-66
12.51667,-66
12.52500,-66
12.53333,-67
12.54167,-68
12.55000,-68
12.55833,-68
12.56667,-69
12.57500,-69
12.58333,-70
12.59167,-70
12.60000,-71
12.60833,-71
12.61667,-72
12.62500,-72
12.63333,-72
12.64167,-73
12.65000,-73
12.65833,-74
12.66667,-74
12.67500,-74
12.68333,-75
12.69167,-75
12.70000,-75
12.70833,-76
12.71667,-76
12.72500,-77
12.73333,-77
12.74167,-78
12.75000,-78
12.75833,-79
12.76667,-79
12.77500,-79
12.78333,-80
12.79167,-80
12.80000,-80
12.80833,-80
12.81667,-80
12.82500,-80
12.83333,-80
12.84167,-80
12.85000,-80
12.85833,-80
12.86667,-80
12.87500,-80
12.88333,-80
12.89167,-80
12.90000,-80
12.90833,-80
12.91667,-80
12.92500,-80
12.93333,-80
12.94167,-80
12.95000,-80
12.95833,-80
12.96667,-80
12.97500,-80
12.98333,-80
12.99167,-79
13.00000,-80
13.00833,-80
13.01667,-80
13.02500,-80
13.03333,-79
13.04167,-79
13.05000,-80
13.05833,-80
13.06667,-80
13.07500,-80
13.08333,-80
13.09167,-81
13.10000,-81
13.10833,-81
13.11667,-81
13.12500,-81
13.13333,-82
13.14167,-82
13.15000,-83
13.15833,-83
13.16667,-84
13.17500,-84
13.18333,-84
13.19167,-85
13.20000,-85
13.20833,-85
13.21667,-86
13.22500,-87
13.23333,-87
13.24167,-88
13.25000,-89
13.25833,-89
13.26667,-89
13.27500,-90
13.28333,-90
13.29167,-91
13.30000,-92
13.30833,-93
13.31667,-94
13.32500,-95
13.33333,-95
13.34167,-96
13.35000,-96
13.35833,-97
13.36667,-97
13.37500,-98
13.38333,-99
13.39167,-100
13.40000,-100
13.40833,-101
13.41667,-102
13.42500,-103
13.43333,-104
13.44167,-104
13.45000,-105
13.45833,-105
13.46667,-105
13.47500,-105
13.48333,-106
13.49167,-106
13.50000,-106
13.50833,-106
13.51667,-107
13.52500,-107
13.53333,-107
13.54167,-107
13.55000,-107
13.55833,-107
13.56667,-107
13.57500,-108
13.58333,-108
13.59167,-108
13.60000,-108
13.60833,-107
13.61667,-107
13.62500,-106
13.63333,-107
13.64167,-107
13.65000,-106
13.65833,-106
13.66667,-105
13.67500,-105
13.68333,-105
13.69167,-105
13.70000,-104
13.70833,-104
13.71667,-104
13.72500,-104
13.73333,-103
13.74167,-103
13.75000,-102
13.75833,-101
13.76667,-101
13.77500,-100
13.78333,-99
13.79167,-98
13.80000,-97
13.80833,-97
13.81667,-96
13.82500,-96
13.83333,-96
13.84167,-96
13.85000,-96
13.85833,-95
13.86667,-95
13.87500,-94
13.88333,-93
13.89167,-93
13.90000,-92
13.90833,-91
13.91667,-91
13.92500,-90
13.93333,-90
13.94167,-89
13.95000,-89
13.95833,-88
13.96667,-87
13.97500,-87
13.98333,-86
13.99167,-86
14.00000,-86
14.00833,-85
14.01667,-85
14.02500,-84
14.03333,-84
14.04167,-83
14.05000,-83
14.05833,-83
14.06667,-83
14.07500,-82
14.08333,-81
14.09167,-80
14.10000,-79
14.10833,-77
14.11667,-76
14.12500,-74
14.13333,-71
14.14167,-68
14.15000,-64
14.15833,-60
14.16667,-55
14.17500,-48
14.18333,-40
14.19167,-30
14.20000,-18
14.20833,-4
14.21667,13
14.22500,32
14.23333,57
14.24167,86
14.25000,121
14.25833,162
14.26667,212
14.27500,270
14.28333,338
14.29167,418
14.30000,511
14.30833,619
14.31667,743
14.32500,885
14.33333,1047
14.34167,1230
14.35000,1437
14.35833,1669
14.36667,1928
14.37500,2215
14.38333,2532
14.39167,2880
14.40000,3261
14.40833,3675
14.41667,4125
14.42500,4610
14.43333,5132
14.44167,5691
14.45000,6287
14.45833,6921
14.46667,7593
14.47500,8303
14.48333,9051
14.49167,9836
14.50000,10659
14.50833,11518
14.51667,12414
14.52500,13346
14.53333,14314
14.54167,15317
14.55000,16354
14.55833,17424
14.56667,18528
14.57500,19664
14.58333,20831
14.59167,22029
14.60000,23257
14.60833,24515
14.61667,25802
14.62500,27118
14.63333,28463
14.64167,29834
14.65000,31233
14.65833,32658
14.66667,34109
14.67500,35586
14.68333,37088
14.69167,38615
14.70000,40166
14.70833,41741
14.71667,43339
14.72500,44962
14.73333,46607
14.74167,48275
14.75000,49965
14.75833,51677
14.76667,53411
14.77500,55167
14.78333,56943
14.79167,58741
14.80000,60558
14.80833,62395
14.81667,64252
14.82500,66128
14.83333,68021
14.84167,69932
14.85000,71859
14.85833,73802
14.86667,75758
14.87500,77728
14.88333,79708
14.89167,81697
14.90000,83692
14.90833,85688
14.91667,87680
14.92500,89662
14.93333,91623
14.94167,93551
14.95000,95428
14.95833,97231
14.96667,98932
14.97500,100497
14.98333,101884
14.99167,103048
15.00000,103937
15.00833,104498
15.01667,104679
15.02500,104430
15.03333,103711
15.04167,102490
15.05000,100749
15.05833,98487
15.06667,95716
15.07500,92469
15.08333,88794
15.09167,84751
15.10000,80410
15.10833,75850
15.11667,71152
15.12500,66394
15.13333,61655
15.14167,57001
15.15000,52493
15.15833,48180
15.16667,44102
15.17500,40285
15.18333,36748
15.19167,33500
15.20000,30542
15.20833,27870
15.21667,25474
15.22500,23343
15.23333,21461
15.24167,19813
15.25000,18382
15.25833,17154
15.26667,16114
15.27500,15246
15.28333,14539
15.29167,13981
15.30000,13562
15.30833,13272
15.31667,13104
15.32500,13050
15.33333,13103
15.34167,13256
15.35000,13505
15.35833,13844
15.36667,14265
15.37500,14764
15.38333,15334
15.39167,15969
15.40000,16662
15.40833,17406
15.41667,18194
15.42500,19017
15.43333,19867
15.44167,20736
15.45000,21615
15.45833,22495
15.46667,23366
15.47500,24220
15.48333,25047
15.49167,25840
15.50000,26588
15.50833,27286
15.51667,27926
15.52500,28501
15.53333,29005
15.54167,29433
15.55000,29781
15.55833,30046
15.56667,30226
15.57500,30320
15.58333,30327
15.59167,30247
15.60000,30082
15.60833,29835
15.61667,29507
15.62500,29104
15.63333,28628
15.64167,28086
15.65000,27482
15.65833,26822
15.66667,26111
15.67500,25356
15.68333,24563
15.69167,23738
15.70000,22887
15.70833,22017
15.71667,21132
15.72500,20238
15.73333,19341
15.74167,18445
15.75000,17556
15.75833,16676
15.76667,15811
15.77500,14963
15.78333,14135
15.79167,13330
15.80000,12549
15.80833,11796
15.81667,11071
15.82500,10375
15.83333,9709
15.84167,9074
15.85000,8470
15.85833,7897
15.86667,7354
15.87500,6842
15.88333,6359
15.89167,5906
15.90000,5480
15.90833,5082
15.91667,4710
15.92500,4363
15.93333,4039
15.94167,3739
15.95000,3460
15.95833,3202
15.96667,2963
15.97500,2742
15.98333,2538
15.99167,2350
16.00000,2177
16.00833,2017
16.01667,1871
16.02500,1736
16.03333,1613
16.04167,1499
16.05000,1395
16.05833,1300
16.06667,1212
16.07500,1132
16.08333,1059
16.09167,992
16.10000,931
16.10833,874
16.11667,823
16.12500,775
16.13333,731
16.14167,691
16.15000,654
16.15833,620
16.16667,589
16.17500,561
16.18333,534
16.19167,510
16.20000,487
16.20833,466
16.21667,446
16.22500,428
16.23333,411
16.24167,396
16.25000,381
16.25833,367
16.26667,355
16.27500,343
16.28333,331
16.29167,320
16.30000,310
16.30833,300
16.31667,291
16.32500,283
16.33333,275
16.34167,267
16.35000,260
16.35833,253
16.36667,247
16.37500,241
16.38333,235
16.39167,229
16.40000,223
16.40833,217
16.41667,212
16.42500,207
16.43333,203
16.44167,199
16.45000,194
16.45833,190
16.46667,186
16.47500,182
16.48333,178
16.49167,174
16.50000,170
16.50833,166
16.51667,163
16.52500,159
16.53333,156
16.54167,153
16.55000,149
16.55833,146
16.56667,143
16.57500,140
16.58333,138
16.59167,135
16.60000,132
16.60833,129
16.61667,127
16.62500,124
16.63333,121
16.64167,118
16.65000,116
16.65833,114
16.66667,111
16.67500,109
16.68333,106
16.69167,104
16.70000,102
16.70833,100
16.71667,98
16.72500,95
16.73333,94
16.74167,92
16.75000,89
16.75833,87
16.76667,85
16.77500,83
16.78333,81
16.79167,79
16.80000,77
16.80833,75
16.81667,73
16.82500,71
16.83333,69
16.84167,67
16.85000,65
16.85833,63
16.86667,62
16.87500,60
16.88333,58
16.89167,56
16.90000,54
16.90833,53
16.91667,51
16.92500,49
16.93333,48
16.94167,46
16.95000,45
16.95833,43
16.96667,41
16.97500,40
16.98333,38
16.99167,37
17.00000,35
17.00833,33
17.01667,31
17.02500,30
17.03333,28
17.04167,27
17.05000,25
17.05833,24
17.06667,22
17.07500,21
17.08333,20
17.09167,18
17.10000,17
17.10833,15
17.11667,14
17.12500,13
17.13333,11
17.14167,10
17.15000,8
17.15833,7
17.16667,5
17.17500,4
17.18333,3
17.19167,2
17.20000,0
17.20833,-1
17.21667,-2
17.22500,-3
17.23333,-5
17.24167,-6
17.25000,-8
17.25833,-9
17.26667,-10
17.27500,-11
17.28333,-12
17.29167,-14
17.30000,-15
17.30833,-17
17.31667,-18
17.32500,-19
17.33333,-21
17.34167,-22
17.35000,-22
17.35833,-24
17.36667,-24
17.37500,-26
17.38333,-27
17.39167,-28
17.40000,-29
17.40833,-30
17.41667,-32
17.42500,-33
17.43333,-34
17.44167,-34
17.45000,-35
17.45833,-36
17.46667,-38
17.47500,-39
17.48333,-40
17.49167,-41
17.50000,-42
17.50833,-43
17.51667,-44
17.52500,-45
17.53333,-46
17.54167,-47
17.55000,-48
17.55833,-49
17.56667,-50
17.57500,-50
17.58333,-51
17.59167,-52
17.60000,-53
17.60833,-54
17.61667,-55
17.62500,-56
17.63333,-57
17.64167,-58
17.65000,-59
17.65833,-60
17.66667,-61
17.67500,-61
17.68333,-62
17.69167,-64
17.70000,-65
17.70833,-66
17.71667,-67
17.72500,-68
17.73333,-69
17.74167,-70
17.75000,-71
17.75833,-72
17.76667,-73
17.77500,-74
17.78333,-74
17.79167,-75
17.80000,-75
17.80833,-76
17.81667,-76
17.82500,-77
17.83333,-78
17.84167,-79
17.85000,-80
17.85833,-80
17.86667,-81
17.87500,-82
17.88333,-83
17.89167,-83
17.90000,-84
17.90833,-85
17.91667,-86
17.92500,-87
17.93333,-88
17.94167,-89
17.95000,-89
17.95833,-90
17.96667,-90
17.97500,-91
17.98333,-92
17.99167,-92
18.00000,-93
18.00833,-94
18.01667,-95
18.02500,-95
18.03333,-96
18.04167,-97
18.05000,-98
18.05833,-99
18.06667,-99
18.07500,-100
18.08333,-101
18.09167,-102
18.10000,-103
18.10833,-104
18.11667,-105
18.12500,-105
18.13333,-106
18.14167,-106
18.15000,-107
18.15833,-108
18.16667,-109
18.17500,-109
18.18333,-109
18.19167,-110
18.20000,-110
18.20833,-111
18.21667,-112
18.22500,-112
18.23333,-113
18.24167,-114
18.25000,-115
18.25833,-116
18.26667,-116
18.27500,-117
18.28333,-118
18.29167,-118
18.30000,-119
18.30833,-120
18.31667,-120
18.32500,-121
18.33333,-121
18.34167,-122
18.35000,-123
18.35833,-123
18.36667,-123
18.37500,-124
18.38333,-124
18.39167,-125
18.40000,-125
18.40833,-126
18.41667,-126
18.42500,-126
18.43333,-127
18.44167,-127
18.45000,-128
18.45833,-128
18.46667,-129
18.47500,-130
18.48333,-130
18.49167,-131
18.50000,-131
18.50833,-132
18.51667,-132
18.52500,-133
18.53333,-133
18.54167,-133
18.55000,-134
18.55833,-134
18.56667,-134
18.57500,-135
18.58333,-135
18.59167,-135
18.60000,-135
18.60833,-135
18.61667,-135
18.62500,-135
18.63333,-134
18.64167,-134
18.65000,-134
18.65833,-134
18.66667,-133
18.67500,-133
18.68333,-133
18.69167,-132
18.70000,-132
18.70833,-132
18.71667,-131
18.72500,-130
18.73333,-129
18.74167,-129
18.75000,-128
18.75833,-127
18.76667,-126
18.77500,-126
18.78333,-125
18.79167,-124
18.80000,-123
18.80833,-122
18.81667,-121
18.82500,-120
18.83333,-119
18.84167,-119
18.85000,-118
18.85833,-118
18.86667,-118
18.87500,-118
18.88333,-118
18.89167,-118
18.90000,-118
18.90833,-118
18.91667,-119
18.92500,-119
18.93333,-120
18.94167,-120
18.95000,-121
18.95833,-122
18.96667,-123
18.97500,-124
18.98333,-125
18.99167,-126
19.00000,-127
19.00833,-129
19.01667,-131
19.02500,-132
19.03333,-134
19.04167,-135
19.05000,-137
19.05833,-138
19.06667,-140
19.07500,-141
19.08333,-143
19.09167,-145
19.10000,-147
19.10833,-148
19.11667,-150
19.12500,-151
19.13333,-153
19.14167,-154
19.15000,-155
19.15833,-156
19.16667,-158
19.17500,-159
19.18333,-160
19.19167,-161
19.20000,-162
19.20833,-163
19.21667,-164
19.22500,-165
19.23333,-166
19.24167,-167
19.25000,-168
19.25833,-169
19.26667,-169
19.27500,-170
19.28333,-171
19.29167,-172
19.30000,-172
19.30833,-173
19.31667,-173
19.32500,-174
19.33333,-174
19.34167,-175
19.35000,-175
19.35833,-176
19.36667,-176
19.37500,-177
19.38333,-177
19.39167,-178
19.40000,-178
19.40833,-178
19.41667,-179
19.42500,-179
19.43333,-179
19.44167,-180
19.45000,-181
19.45833,-181
19.46667,-181
19.47500,-182
19.48333,-182
19.49167,-183
19.50000,-183
19.50833,-183
19.51667,-184
19.52500,-184
19.53333,-184
19.54167,-184
19.55000,-185
19.55833,-185
19.56667,-185
19.57500,-186
19.58333,-186
19.59167,-186
19.60000,-187
19.60833,-187
19.61667,-188
19.62500,-188
19.63333,-189
19.64167,-189
19.65000,-190
19.65833,-190
19.66667,-191
19.67500,-190
19.68333,-190
19.69167,-190
19.70000,-190
19.70833,-191
19.71667,-191
19.72500,-192
19.73333,-192
19.74167,-193
19.75000,-193
19.75833,-193
19.76667,-194
19.77500,-195
19.78333,-195
19.79167,-195
19.80000,-195
19.80833,-196
19.81667,-196
19.82500,-196
19.83333,-196
19.84167,-197
19.85000,-197
19.85833,-197
19.86667,-197
19.87500,-198
19.88333,-197
19.89167,-197
19.90000,-197
19.90833,-198
19.91667,-199
19.92500,-199
19.93333,-200
19.94167,-200
19.95000,-201
19.95833,-201
19.96667,-201
19.97500,-202
19.98333,-202
19.99167,-203
20.00000,-203
20.00833,-203
20.01667,-203
20.02500,-203
20.03333,-204
20.04167,-204
20.05000,-204
20.05833,-205
20.06667,-205
20.07500,-205
20.08333,-205
20.09167,-205
20.10000,-205
20.10833,-206
20.11667,-206
20.12500,-206
20.13333,-206
20.14167,-207
20.15000,-207
20.15833,-207
20.16667,-208
20.17500,-208
20.18333,-208
20.19167,-208
20.20000,-208
20.20833,-208
20.21667,-208
20.22500,-209
20.23333,-209
20.24167,-210
20.25000,-210
20.25833,-210
20.26667,-210
20.27500,-210
20.28333,-210
20.29167,-210
20.30000,-211
20.30833,-211
20.31667,-211
20.32500,-211
20.33333,-212
20.34167,-212
20.35000,-213
20.35833,-213
20.36667,-213
20.37500,-213
20.38333,-213
20.39167,-213
20.40000,-213
20.40833,-214
20.41667,-214
20.42500,-214
20.43333,-215
20.44167,-215
20.45000,-215
20.45833,-215
20.46667,-215
20.47500,-216
20.48333,-216
20.49167,-216
20.50000,-216
20.50833,-216
20.51667,-216
20.52500,-216
20.53333,-216
20.54167,-216
20.55000,-217
20.55833,-217
20.56667,-217
20.57500,-217
20.58333,-217
20.59167,-217
20.60000,-217
20.60833,-217
20.61667,-218
20.62500,-218
20.63333,-218
20.64167,-219
20.65000,-219
20.65833,-219
20.66667,-220
20.67500,-220
20.68333,-220
20.69167,-220
20.70000,-220
20.70833,-221
20.71667,-221
20.72500,-221
20.73333,-221
20.74167,-220
20.75000,-221
20.75833,-221
20.76667,-221
20.77500,-222
20.78333,-223
20.79167,-223
20.80000,-224
20.80833,-224
20.81667,-224
20.82500,-224
20.83333,-224
20.84167,-224
20.85000,-224
20.85833,-225
20.86667,-225
20.87500,-225
20.88333,-225
20.89167,-226
20.90000,-226
20.90833,-226
20.91667,-226
20.92500,-226
20.93333,-226
20.94167,-226
20.95000,-226
20.95833,-226
20.96667,-227
20.97500,-227
20.98333,-228
20.99167,-228
21.00000,-228
21.00833,-228
21.01667,-229
21.02500,-229
21.03333,-229
21.04167,-230
21.05000,-230
21.05833,-230
21.06667,-230
21.07500,-230
21.08333,-230
21.09167,-230
21.10000,-230
21.10833,-230
21.11667,-230
21.12500,-230
21.13333,-230
21.14167,-230
21.15000,-230
21.15833,-230
21.16667,-230
21.17500,-231
21.18333,-231
21.19167,-231
21.20000,-232
21.20833,-232
21.21667,-232
21.22500,-232
21.23333,-232
21.24167,-233
21.25000,-233
21.25833,-233
21.26667,-233
21.27500,-233
21.28333,-233
21.29167,-233
21.30000,-233
21.30833,-233
21.31667,-233
21.32500,-233
21.33333,-234
21.34167,-234
21.35000,-234
21.35833,-235
21.36667,-235
21.37500,-235
21.38333,-235
21.39167,-235
21.40000,-235
21.40833,-235
21.41667,-235
21.42500,-235
21.43333,-235
21.44167,-235
21.45000,-235
21.45833,-235
21.46667,-235
21.47500,-236
21.48333,-236
21.49167,-236
21.50000,-236
21.50833,-236
21.51667,-236
21.52500,-236
21.53333,-236
21.54167,-236
21.55000,-236
21.55833,-236
21.56667,-236
21.57500,-236
21.58333,-236
21.59167,-236
21.60000,-236
21.60833,-236
21.61667,-236
21.62500,-236
21.63333,-236
21.64167,-236
21.65000,-236
21.65833,-236
21.66667,-236
21.67500,-236
21.68333,-236
21.69167,-236
21.70000,-236
21.70833,-235
21.71667,-235
21.72500,-235
21.73333,-234
21.74167,-234
21.75000,-234
21.75833,-235
21.76667,-234
21.77500,-234
21.78333,-234
21.79167,-234
21.80000,-233
21.80833,-233
21.81667,-233
21.82500,-233
21.83333,-233
21.84167,-233
21.85000,-233
21.85833,-233
21.86667,-233
21.87500,-233
21.88333,-233
21.89167,-234
21.90000,-234
21.90833,-234
21.91667,-234
21.92500,-234
21.93333,-234
21.94167,-234
21.95000,-234
21.95833,-234
21.96667,-234
21.97500,-234
21.98333,-234
21.99167,-235
22.00000,-235
22.00833,-235
22.01667,-235
22.02500,-236
22.03333,-236
22.04167,-236
22.05000,-237
22.05833,-237
22.06667,-237
22.07500,-237
22.08333,-238
22.09167,-238
22.10000,-239
22.10833,-239
22.11667,-240
22.12500,-241
22.13333,-241
22.14167,-242
22.15000,-242
22.15833,-242
22.16667,-242
22.17500,-243
22.18333,-243
22.19167,-243
22.20000,-243
22.20833,-244
22.21667,-244
22.22500,-245
22.23333,-246
22.24167,-246
22.25000,-246
22.25833,-247
22.26667,-247
22.27500,-247
22.28333,-248
22.29167,-248
22.30000,-248
22.30833,-249
22.31667,-249
22.32500,-250
22.33333,-250
22.34167,-250
22.35000,-250
22.35833,-250
22.36667,-250
22.37500,-250
22.38333,-251
22.39167,-251
22.40000,-251
22.40833,-252
22.41667,-252
22.42500,-252
22.43333,-253
22.44167,-253
22.45000,-253
22.45833,-253
22.46667,-253
22.47500,-253
22.48333,-253
22.49167,-253
22.50000,-253
22.50833,-253
22.51667,-253
22.52500,-254
22.53333,-254
22.54167,-255
22.55000,-255
22.55833,-255
22.56667,-255
22.57500,-255
22.58333,-255
22.59167,-255
22.60000,-255
22.60833,-255
22.61667,-255
22.62500,-255
22.63333,-255
22.64167,-256
22.65000,-256
22.65833,-256
22.66667,-256
22.67500,-256
22.68333,-256
22.69167,-256
22.70000,-256
22.70833,-256
22.71667,-256
22.72500,-256
22.73333,-257
22.74167,-257
22.75000,-257
22.75833,-257
22.76667,-256
22.77500,-256
22.78333,-256
22.79167,-256
22.80000,-255
22.80833,-255
22.81667,-255
22.82500,-254
22.83333,-254
22.84167,-254
22.85000,-253
22.85833,-253
22.86667,-253
22.87500,-252
22.88333,-252
22.89167,-251
22.90000,-251
22.90833,-250
22.91667,-250
22.92500,-249
22.93333,-249
22.94167,-248
22.95000,-248
22.95833,-248
22.96667,-247
22.97500,-247
22.98333,-246
22.99167,-245
23.00000,-245
23.00833,-244
23.01667,-243
23.02500,-243
23.03333,-242
23.04167,-242
23.05000,-242
23.05833,-241
23.06667,-241
23.07500,-240
23.08333,-240
23.09167,-240
23.10000,-239
23.10833,-239
23.11667,-239
23.12500,-239
23.13333,-239
23.14167,-239
23.15000,-239
23.15833,-239
23.16667,-240
23.17500,-240
23.18333,-240
23.19167,-241
23.20000,-241
23.20833,-242
23.21667,-242
23.22500,-242
23.23333,-243
23.24167,-244
23.25000,-244
23.25833,-244
23.26667,-245
23.27500,-246
23.28333,-246
23.29167,-246
23.30000,-247
23.30833,-247
23.31667,-249
23.32500,-250
23.33333,-251
23.34167,-251
23.35000,-253
23.35833,-254
23.36667,-255
23.37500,-256
23.38333,-256
23.39167,-257
23.40000,-257
23.40833,-258
23.41667,-259
23.42500,-260
23.43333,-260
23.44167,-261
23.45000,-261
23.45833,-261
23.46667,-262
23.47500,-262
23.48333,-263
23.49167,-264
23.50000,-264
23.50833,-265
23.51667,-266
23.52500,-266
23.53333,-267
23.54167,-267
23.55000,-267
23.55833,-267
23.56667,-267
23.57500,-268
23.58333,-268
23.59167,-269
23.60000,-269
23.60833,-269
23.61667,-269
23.62500,-270
23.63333,-270
23.64167,-270
23.65000,-270
23.65833,-270
23.66667,-270
23.67500,-270
23.68333,-270
23.69167,-271
23.70000,-271
23.70833,-271
23.71667,-271
23.72500,-271
23.73333,-271
23.74167,-272
23.75000,-272
23.75833,-272
23.76667,-273
23.77500,-273
23.78333,-273
23.79167,-274
23.80000,-274
23.80833,-274
23.81667,-274
23.82500,-274
23.83333,-274
23.84167,-274
23.85000,-274
23.85833,-274
23.86667,-275
23.87500,-275
23.88333,-275
23.89167,-275
23.90000,-275
23.90833,-275
23.91667,-275
23.92500,-275
23.93333,-275
23.94167,-275
23.95000,-275
23.95833,-276
23.96667,-276
23.97500,-276
23.98333,-276
23.99167,-276
24.00000,-276
24.00833,-276
24.01667,-276
24.02500,-276
24.03333,-277
24.04167,-277
24.05000,-278
24.05833,-278
24.06667,-278
24.07500,-278
24.08333,-278
24.09167,-278
24.10000,-278
24.10833,-278
24.11667,-278
24.12500,-279
24.13333,-279
24.14167,-279
24.15000,-279
24.15833,-279
24.16667,-279
24.17500,-279
24.18333,-279
24.19167,-279
24.20000,-279
24.20833,-280
24.21667,-280
24.22500,-280
24.23333,-280
24.24167,-280
24.25000,-280
24.25833,-280
24.26667,-280
24.27500,-279
24.28333,-279
24.29167,-279
24.30000,-279
24.30833,-280
24.31667,-280
24.32500,-280
24.33333,-280
24.34167,-280
24.35000,-279
24.35833,-279
24.36667,-279
24.37500,-279
24.38333,-279
24.39167,-279
24.40000,-278
24.40833,-278
24.41667,-278
24.42500,-278
24.43333,-278
24.44167,-277
24.45000,-277
24.45833,-277
24.46667,-276
24.47500,-275
24.48333,-274
24.49167,-273
24.50000,-272
24.50833,-271
24.51667,-270
24.52500,-268
24.53333,-267
24.54167,-266
24.55000,-264
24.55833,-262
24.56667,-259
24.57500,-257
24.58333,-254
24.59167,-252
24.60000,-249
24.60833,-246
24.61667,-243
24.62500,-239
24.63333,-235
24.64167,-231
24.65000,-226
24.65833,-221
24.66667,-216
24.67500,-210
24.68333,-204
24.69167,-198
24.70000,-192
24.70833,-185
24.71667,-178
24.72500,-171
24.73333,-163
24.74167,-155
24.75000,-147
24.75833,-139
24.76667,-130
24.77500,-122
24.78333,-113
24.79167,-104
24.80000,-94
24.80833,-85
24.81667,-75
24.82500,-66
24.83333,-56
24.84167,-48
24.85000,-39
24.85833,-30
24.86667,-21
24.87500,-13
24.88333,-5
24.89167,3
24.90000,10
24.90833,16
24.91667,22
24.92500,28
24.93333,33
24.94167,38
24.95000,42
24.95833,46
24.96667,48
24.97500,51
24.98333,52
24.99167,53
25.00000,54
25.00833,53
25.01667,52
25.02500,50
25.03333,48
25.04167,45
25.05000,41
25.05833,36
25.06667,31
25.07500,25
25.08333,19
25.09167,13
25.10000,6
25.10833,-1
25.11667,-8
25.12500,-16
25.13333,-25
25.14167,-33
25.15000,-42
25.15833,-51
25.16667,-60
25.17500,-68
25.18333,-77
25.19167,-86
25.20000,-94
25.20833,-103
25.21667,-112
25.22500,-121
25.23333,-129
25.24167,-137
25.25000,-145
25.25833,-152
25.26667,-160
25.27500,-167
25.28333,-174
25.29167,-181
25.30000,-187
25.30833,-194
25.31667,-200
25.32500,-206
25.33333,-212
25.34167,-217
25.35000,-222
25.35833,-227
25.36667,-232
25.37500,-236
25.38333,-241
25.39167,-244
25.40000,-248
25.40833,-251
25.41667,-254
25.42500,-257
25.43333,-260
25.44167,-262
25.45000,-264
25.45833,-267
25.46667,-269
25.47500,-271
25.48333,-273
25.49167,-274
25.50000,-276
25.50833,-277
25.51667,-278
25.52500,-280
25.53333,-281
25.54167,-282
25.55000,-283
25.55833,-284
25.56667,-285
25.57500,-285
25.58333,-286
25.59167,-286
25.60000,-287
25.60833,-287
25.61667,-288
25.62500,-289
25.63333,-289
25.64167,-290
25.65000,-290
25.65833,-290
25.66667,-290
25.67500,-291
25.68333,-291
25.69167,-291
25.70000,-291
25.70833,-291
25.71667,-291
25.72500,-291
25.73333,-292
25.74167,-292
25.75000,-293
25.75833,-293
25.76667,-293
25.77500,-293
25.78333,-293
25.79167,-293
25.80000,-293
25.80833,-293
25.81667,-294
25.82500,-294
25.83333,-294
25.84167,-294
25.85000,-294
25.85833,-295
25.86667,-295
25.87500,-295
25.88333,-295
25.89167,-295
25.90000,-296
25.90833,-296
25.91667,-296
25.92500,-296
25.93333,-296
25.94167,-296
25.95000,-296
25.95833,-296
25.96667,-297
25.97500,-297
25.98333,-296
25.99167,-296
26.00000,-296
26.00833,-296
26.01667,-296
26.02500,-297
26.03333,-297
26.04167,-297
26.05000,-297
26.05833,-298
26.06667,-298
26.07500,-298
26.08333,-298
26.09167,-298
26.10000,-298
26.10833,-298
26.11667,-298
26.12500,-298
26.13333,-299
26.14167,-299
26.15000,-299
26.15833,-299
26.16667,-299
26.17500,-298
26.18333,-298
26.19167,-299
26.20000,-299
26.20833,-299
26.21667,-300
26.22500,-300
26.23333,-300
26.24167,-300
26.25000,-301
26.25833,-301
26.26667,-301
26.27500,-301
26.28333,-301
26.29167,-301
26.30000,-301
26.30833,-301
26.31667,-301
26.32500,-301
26.33333,-302
26.34167,-302
26.35000,-302
26.35833,-302
26.36667,-302
26.37500,-302
26.38333,-302
26.39167,-302
26.40000,-302
26.40833,-302
26.41667,-301
26.42500,-301
26.43333,-302
26.44167,-302
26.45000,-303
26.45833,-303
26.46667,-304
26.47500,-304
26.48333,-303
26.49167,-303
26.50000,-303
26.50833,-303
26.51667,-303
26.52500,-303
26.53333,-303
26.54167,-303
26.55000,-304
26.55833,-304
26.56667,-303
26.57500,-303
26.58333,-304
26.59167,-304
26.60000,-305
26.60833,-305
26.61667,-305
26.62500,-305
26.63333,-305
26.64167,-305
26.65000,-305
26.65833,-305
26.66667,-305
26.67500,-305
26.68333,-305
26.69167,-305
26.70000,-305
26.70833,-305
26.71667,-305
26.72500,-305
26.73333,-305
26.74167,-305
26.75000,-305
26.75833,-305
26.76667,-305
26.77500,-305
26.78333,-306
26.79167,-306
26.80000,-305
26.80833,-305
26.81667,-306
26.82500,-306
26.83333,-306
26.84167,-306
26.85000,-306
26.85833,-306
26.86667,-306
26.87500,-307
26.88333,-307
26.89167,-307
26.90000,-307
26.90833,-307
26.91667,-307
26.92500,-307
26.93333,-307
26.94167,-307
26.95000,-307
26.95833,-308
26.96667,-308
26.97500,-308
26.98333,-308
26.99167,-308
27.00000,-308
27.00833,-308
27.01667,-308
27.02500,-308
27.03333,-309
27.04167,-308
27.05000,-308
27.05833,-308
27.06667,-308
27.07500,-309
27.08333,-309
27.09167,-309
27.10000,-309
27.10833,-310
27.11667,-310
27.12500,-310
27.13333,-310
27.14167,-310
27.15000,-310
27.15833,-310
27.16667,-310
27.17500,-309
27.18333,-309
27.19167,-309
27.20000,-309
27.20833,-309
27.21667,-310
27.22500,-310
27.23333,-311
27.24167,-311
27.25000,-311
27.25833,-311
27.26667,-311
27.27500,-311
27.28333,-311
27.29167,-310
27.30000,-310
27.30833,-311
27.31667,-311
27.32500,-311
27.33333,-311
27.34167,-311
27.35000,-312
27.35833,-312
27.36667,-311
27.37500,-311
27.38333,-311
27.39167,-311
27.40000,-311
27.40833,-311
27.41667,-311
27.42500,-312
27.43333,-312
27.44167,-312
27.45000,-312
27.45833,-312
27.46667,-312
27.47500,-312
27.48333,-313
27.49167,-313
27.50000,-312
27.50833,-312
27.51667,-313
27.52500,-313
27.53333,-313
27.54167,-313
27.55000,-313
27.55833,-313
27.56667,-313
27.57500,-313
27.58333,-313
27.59167,-313
27.60000,-314
27.60833,-314
27.61667,-314
27.62500,-314
27.63333,-314
27.64167,-314
27.65000,-314
27.65833,-315
27.66667,-315
27.67500,-315
27.68333,-314
27.69167,-314
27.70000,-315
27.70833,-315
27.71667,-315
27.72500,-316
27.73333,-316
27.74167,-317
27.75000,-318
27.75833,-319
27.76667,-320
27.77500,-320
27.78333,-320
27.79167,-320
27.80000,-321
27.80833,-322
27.81667,-322
27.82500,-323
27.83333,-324
27.84167,-325
27.85000,-326
27.85833,-328
27.86667,-329
27.87500,-330
27.88333,-331
27.89167,-333
27.90000,-335
27.90833,-337
27.91667,-339
27.92500,-341
27.93333,-343
27.94167,-346
27.95000,-349
27.95833,-352
27.96667,-355
27.97500,-358
27.98333,-362
27.99167,-366
28.00000,-370
28.00833,-375
28.01667,-380
28.02500,-385
28.03333,-390
28.04167,-397
28.05000,-403
28.05833,-410
28.06667,-417
28.07500,-424
28.08333,-432
28.09167,-441
28.10000,-449
28.10833,-458
28.11667,-468
28.12500,-478
28.13333,-489
28.14167,-500
28.15000,-511
28.15833,-524
28.16667,-536
28.17500,-549
28.18333,-563
28.19167,-578
28.20000,-593
28.20833,-608
28.21667,-624
28.22500,-640
28.23333,-657
28.24167,-673
28.25000,-691
28.25833,-708
28.26667,-727
28.27500,-745
28.28333,-764
28.29167,-783
28.30000,-802
28.30833,-822
28.31667,-842
28.32500,-862
28.33333,-882
28.34167,-902
28.35000,-922
28.35833,-942
28.36667,-961
28.37500,-981
28.38333,-1001
28.39167,-1020
28.40000,-1039
28.40833,-1058
28.41667,-1076
28.42500,-1093
28.43333,-1111
28.44167,-1128
28.45000,-1144
28.45833,-1160
28.46667,-1175
28.47500,-1190
28.48333,-1203
28.49167,-1217
28.50000,-1229
28.50833,-1241
28.51667,-1252
28.52500,-1262
28.53333,-1271
28.54167,-1279
28.55000,-1286
28.55833,-1293
28.56667,-1298
28.57500,-1303
28.58333,-1307
28.59167,-1310
28.60000,-1311
28.60833,-1312
28.61667,-1312
28.62500,-1312
28.63333,-1310
28.64167,-1308
28.65000,-1305
28.65833,-1301
28.66667,-1296
28.67500,-1290
28.68333,-1284
28.69167,-1278
28.70000,-1271
28.70833,-1263
28.71667,-1254
28.72500,-1245
28.73333,-1236
28.74167,-1226
28.75000,-1215
28.75833,-1204
28.76667,-1193
28.77500,-1181
28.78333,-1169
28.79167,-1157
28.80000,-1145
28.80833,-1132
28.81667,-1120
28.82500,-1107
28.83333,-1094
28.84167,-1082
28.85000,-1069
28.85833,-1057
28.86667,-1044
28.87500,-1031
28.88333,-1019
28.89167,-1006
28.90000,-993
28.90833,-981
28.91667,-969
28.92500,-957
28.93333,-946
28.94167,-934
28.95000,-923
28.95833,-912
28.96667,-901
28.97500,-890
28.98333,-880
28.99167,-870
29.00000,-859
29.00833,-849
29.01667,-840
29.02500,-830
29.03333,-822
29.04167,-813
29.05000,-805
29.05833,-796
29.06667,-788
29.07500,-780
29.08333,-772
29.09167,-765
29.10000,-758
29.10833,-751
29.11667,-744
29.12500,-738
29.13333,-732
29.14167,-726
29.15000,-720
29.15833,-715
29.16667,-710
29.17500,-705
29.18333,-700
29.19167,-696
29.20000,-691
29.20833,-687
29.21667,-682
29.22500,-678
29.23333,-675
29.24167,-671
29.25000,-667
29.25833,-664
29.26667,-660
29.27500,-657
29.28333,-654
29.29167,-651
29.30000,-648
29.30833,-645
29.31667,-643
29.32500,-640
29.33333,-638
29.34167,-635
29.35000,-633
29.35833,-630
29.36667,-628
29.37500,-625
29.38333,-623
29.39167,-621
29.40000,-620
29.40833,-618
29.41667,-616
29.42500,-614
29.43333,-612
29.44167,-611
29.45000,-610
29.45833,-608
29.46667,-607
29.47500,-606
29.48333,-605
29.49167,-604
29.50000,-603
29.50833,-601
29.51667,-600
29.52500,-599
29.53333,-598
29.54167,-596
29.55000,-595
29.55833,-594
29.56667,-594
29.57500,-593
29.58333,-593
29.59167,-593
29.60000,-592
29.60833,-592
29.61667,-591
29.62500,-591
29.63333,-591
29.64167,-591
29.65000,-591
29.65833,-591
29.66667,-591
29.67500,-591
29.68333,-591
29.69167,-591
29.70000,-591
29.70833,-591
29.71667,-592
29.72500,-592
29.73333,-593
29.74167,-594
29.75000,-594
29.75833,-595
29.76667,-597
29.77500,-598
29.78333,-600
29.79167,-602
29.80000,-604
29.80833,-606
29.81667,-608
29.82500,-610
29.83333,-612
29.84167,-614
29.85000,-616
29.85833,-619
29.86667,-622
29.87500,-624
29.88333,-627
29.89167,-630
29.90000,-633
29.90833,-637
29.91667,-640
29.92500,-644
29.93333,-648
29.94167,-652
29.95000,-656
29.95833,-661
29.96667,-665
29.97500,-669
29.98333,-673
29.99167,-678
30.00000,-682
30.00833,-687
30.01667,-692
30.02500,-696
30.03333,-701
30.04167,-706
30.05000,-711
30.05833,-717
30.06667,-722
30.07500,-727
30.08333,-732
30.09167,-737
30.10000,-742
30.10833,-747
30.11667,-751
30.12500,-756
30.13333,-761
30.14167,-765
30.15000,-770
30.15833,-774
30.16667,-779
30.17500,-783
30.18333,-787
30.19167,-791
30.20000,-795
30.20833,-799
30.21667,-802
30.22500,-806
30.23333,-809
30.24167,-812
30.25000,-815
30.25833,-818
30.26667,-820
30.27500,-822
30.28333,-824
30.29167,-825
30.30000,-826
30.30833,-827
30.31667,-828
30.32500,-828
30.33333,-829
30.34167,-829
30.35000,-829
30.35833,-828
30.36667,-828
30.37500,-827
30.38333,-826
30.39167,-824
30.40000,-823
30.40833,-821
30.41667,-819
30.42500,-817
30.43333,-815
30.44167,-812
30.45000,-809
30.45833,-806
30.46667,-803
30.47500,-800
30.48333,-797
30.49167,-793
30.50000,-790
30.50833,-786
30.51667,-783
30.52500,-779
30.53333,-775
30.54167,-771
30.55000,-766
30.55833,-762
30.56667,-758
30.57500,-753
30.58333,-749
30.59167,-744
30.60000,-740
30.60833,-736
30.61667,-732
30.62500,-728
30.63333,-723
30.64167,-719
30.65000,-715
30.65833,-711
30.66667,-707
30.67500,-703
30.68333,-698
30.69167,-695
30.70000,-691
30.70833,-688
30.71667,-684
30.72500,-681
30.73333,-678
30.74167,-674
30.75000,-671
30.75833,-668
30.76667,-664
30.77500,-661
30.78333,-658
30.79167,-656
30.80000,-653
30.80833,-650
30.81667,-647
30.82500,-644
30.83333,-642
30.84167,-639
30.85000,-637
30.85833,-635
30.86667,-633
30.87500,-631
30.88333,-629
30.89167,-628
30.90000,-626
30.90833,-625
30.91667,-623
30.92500,-622
30.93333,-620
30.94167,-619
30.95000,-618
30.95833,-616
30.96667,-615
30.97500,-614
30.98333,-613
30.99167,-611
31.00000,-610
31.00833,-609
31.01667,-608
31.02500,-607
31.03333,-606
31.04167,-604
31.05000,-603
31.05833,-602
31.06667,-601
31.07500,-600
31.08333,-600
31.09167,-599
31.10000,-598
31.10833,-597
31.11667,-596
31.12500,-595
31.13333,-594
31.14167,-593
31.15000,-592
31.15833,-591
31.16667,-590
31.17500,-589
31.18333,-587
31.19167,-586
31.20000,-584
31.20833,-583
31.21667,-582
31.22500,-580
31.23333,-580
31.24167,-579
31.25000,-577
31.25833,-576
31.26667,-574
31.27500,-573
31.28333,-571
31.29167,-570
31.30000,-568
31.30833,-567
31.31667,-565
31.32500,-564
31.33333,-562
31.34167,-561
31.35000,-560
31.35833,-559
31.36667,-558
31.37500,-557
31.38333,-555
31.39167,-554
31.40000,-553
31.40833,-551
31.41667,-550
31.42500,-548
31.43333,-547
31.44167,-546
31.45000,-544
31.45833,-543
31.46667,-541
31.47500,-540
31.48333,-539
31.49167,-537
31.50000,-536
31.50833,-535
31.51667,-534
31.52500,-533
31.53333,-532
31.54167,-531
31.55000,-529
31.55833,-528
31.56667,-527
31.57500,-525
31.58333,-524
31.59167,-523
31.60000,-522
31.60833,-521
31.61667,-520
31.62500,-518
31.63333,-517
31.64167,-516
31.65000,-515
31.65833,-514
31.66667,-513
31.67500,-512
31.68333,-512
31.69167,-511
31.70000,-510
31.70833,-510
31.71667,-509
31.72500,-508
31.73333,-507
31.74167,-506
31.75000,-505
31.75833,-505
31.76667,-504
31.77500,-503
31.78333,-502
31.79167,-501
31.80000,-500
31.80833,-499
31.81667,-498
31.82500,-497
31.83333,-497
31.84167,-496
31.85000,-496
31.85833,-495
31.86667,-494
31.87500,-494
31.88333,-494
31.89167,-494
31.90000,-494
31.90833,-493
31.91667,-493
31.92500,-492
31.93333,-492
31.94167,-492
31.95000,-491
31.95833,-490
31.96667,-490
31.97500,-490
31.98333,-489
31.99167,-489
32.00000,-488
32.00833,-487
32.01667,-487
32.02500,-487
32.03333,-486
32.04167,-486
32.05000,-486
32.05833,-486
32.06667,-485
32.07500,-485
32.08333,-485
32.09167,-484
32.10000,-484
32.10833,-483
32.11667,-483
32.12500,-483
32.13333,-483
32.14167,-482
32.15000,-482
32.15833,-481
32.16667,-480
32.17500,-480
32.18333,-479
32.19167,-480
32.20000,-479
32.20833,-479
32.21667,-479
32.22500,-479
32.23333,-479
32.24167,-478
32.25000,-478
32.25833,-478
32.26667,-477
32.27500,-477
32.28333,-477
32.29167,-476
32.30000,-476
32.30833,-476
32.31667,-475
32.32500,-475
32.33333,-475
32.34167,-475
32.35000,-475
32.35833,-474
32.36667,-474
32.37500,-473
32.38333,-473
32.39167,-472
32.40000,-472
32.40833,-471
32.41667,-471
32.42500,-471
32.43333,-471
32.44167,-470
32.45000,-470
32.45833,-470
32.46667,-470
32.47500,-469
32.48333,-469
32.49167,-468
32.50000,-468
32.50833,-467
32.51667,-467
32.52500,-467
32.53333,-467
32.54167,-466
32.55000,-466
32.55833,-465
32.56667,-464
32.57500,-464
32.58333,-463
32.59167,-463
32.60000,-462
32.60833,-462
32.61667,-462
32.62500,-462
32.63333,-461
32.64167,-461
32.65000,-460
32.65833,-460
32.66667,-460
32.67500,-459
32.68333,-459
32.69167,-459
32.70000,-458
32.70833,-458
32.71667,-457
32.72500,-457
32.73333,-457
32.74167,-456
32.75000,-456
32.75833,-455
32.76667,-455
32.77500,-455
32.78333,-455
32.79167,-455
32.80000,-454
32.80833,-454
32.81667,-453
32.82500,-453
32.83333,-453
32.84167,-452
32.85000,-452
32.85833,-451
32.86667,-451
32.87500,-450
32.88333,-450
32.89167,-449
32.90000,-449
32.90833,-449
32.91667,-448
32.92500,-448
32.93333,-447
32.94167,-447
32.95000,-447
32.95833,-446
32.96667,-446
32.97500,-446
32.98333,-445
32.99167,-445
33.00000,-445
33.00833,-445
33.01667,-444
33.02500,-444
33.03333,-444
33.04167,-443
33.05000,-443
33.05833,-443
33.06667,-443
33.07500,-442
33.08333,-442
33.09167,-441
33.10000,-441
33.10833,-441
33.11667,-441
33.12500,-441
33.13333,-440
33.14167,-440
33.15000,-440
33.15833,-439
33.16667,-439
33.17500,-438
33.18333,-438
33.19167,-438
33.20000,-437
33.20833,-436
33.21667,-435
33.22500,-435
33.23333,-434
33.24167,-433
33.25000,-433
33.25833,-433
33.26667,-432
33.27500,-432
33.28333,-432
33.29167,-432
33.30000,-432
33.30833,-432
33.31667,-431
33.32500,-431
33.33333,-430
33.34167,-430
33.35000,-430
33.35833,-430
33.36667,-430
33.37500,-430
33.38333,-429
33.39167,-429
33.40000,-429
33.40833,-429
33.41667,-428
33.42500,-428
33.43333,-428
33.44167,-428
33.45000,-428
33.45833,-428
33.46667,-428
33.47500,-427
33.48333,-427
33.49167,-427
33.50000,-426
33.50833,-426
33.51667,-426
33.52500,-426
33.53333,-426
33.54167,-426
33.55000,-426
33.55833,-426
33.56667,-426
33.57500,-425
33.58333,-425
33.59167,-425
33.60000,-425
33.60833,-425
33.61667,-425
33.62500,-425
33.63333,-424
33.64167,-424
33.65000,-423
33.65833,-423
33.66667,-423
33.67500,-423
33.68333,-423
33.69167,-423
33.70000,-424
33.70833,-424
33.71667,-424
33.72500,-425
33.73333,-425
33.74167,-424
33.75000,-424
33.75833,-423
33.76667,-424
33.77500,-423
33.78333,-423
33.79167,-423
33.80000,-423
33.80833,-423
33.81667,-423
33.82500,-423
33.83333,-423
33.84167,-424
33.85000,-424
33.85833,-424
33.86667,-423
33.87500,-423
33.88333,-423
33.89167,-423
33.90000,-423
33.90833,-423
33.91667,-423
33.92500,-423
33.93333,-423
33.94167,-422
33.95000,-422
33.95833,-422
33.96667,-422
33.97500,-422
33.98333,-422
33.99167,-421
34.00000,-422
34.00833,-422
34.01667,-422
34.02500,-422
34.03333,-422
34.04167,-422
34.05000,-422
34.05833,-422
34.06667,-422
34.07500,-422
34.08333,-422
34.09167,-422
34.10000,-422
34.10833,-422
34.11667,-422
34.12500,-422
34.13333,-421
34.14167,-421
34.15000,-421
34.15833,-421
34.16667,-422
34.17500,-422
34.18333,-422
34.19167,-422
34.20000,-422
34.20833,-422
34.21667,-421
34.22500,-421
34.23333,-421
34.24167,-421
34.25000,-422
34.25833,-422
34.26667,-422
34.27500,-422
34.28333,-422
34.29167,-422
34.30000,-422
34.30833,-422
34.31667,-422
34.32500,-422
34.33333,-422
34.34167,-422
34.35000,-423
34.35833,-423
34.36667,-423
34.37500,-423
34.38333,-423
34.39167,-422
34.40000,-422
34.40833,-422
34.41667,-423
34.42500,-423
34.43333,-423
34.44167,-423
34.45000,-423
34.45833,-423
34.46667,-423
34.47500,-423
34.48333,-423
34.49167,-423
34.50000,-423
34.50833,-423
34.51667,-423
34.52500,-423
34.53333,-423
34.54167,-423
34.55000,-423
34.55833,-424
34.56667,-423
34.57500,-423
34.58333,-423
34.59167,-424
34.60000,-424
34.60833,-424
34.61667,-424
34.62500,-424
34.63333,-424
34.64167,-424
34.65000,-424
34.65833,-424
34.66667,-424
34.67500,-425
34.68333,-425
34.69167,-424
34.70000,-424
34.70833,-424
34.71667,-424
34.72500,-424
34.73333,-425
34.74167,-425
34.75000,-426
34.75833,-426
34.76667,-426
34.77500,-426
34.78333,-426
34.79167,-426
34.80000,-426
34.80833,-426
34.81667,-426
34.82500,-426
34.83333,-426
34.84167,-425
34.85000,-425
34.85833,-426
34.86667,-426
34.87500,-426
34.88333,-426
34.89167,-426
34.90000,-426
34.90833,-427
34.91667,-427
34.92500,-427
34.93333,-427
34.94167,-427
34.95000,-427
34.95833,-427
34.96667,-427
34.97500,-427
34.98333,-427
34.99167,-427
35.00000,-428
35.00833,-428
35.01667,-429
35.02500,-429
35.03333,-428
35.04167,-428
35.05000,-428
35.05833,-428
35.06667,-428
35.07500,-428
35.08333,-428
35.09167,-428
35.10000,-429
35.10833,-429
35.11667,-429
35.12500,-429
35.13333,-429
35.14167,-428
35.15000,-429
35.15833,-429
35.16667,-429
35.17500,-429
35.18333,-429
35.19167,-429
35.20000,-429
35.20833,-429
35.21667,-429
35.22500,-429
35.23333,-429
35.24167,-430
35.25000,-430
35.25833,-429
35.26667,-429
35.27500,-429
35.28333,-429
35.29167,-430
35.30000,-430
35.30833,-430
35.31667,-430
35.32500,-430
35.33333,-430
35.34167,-429
35.35000,-430
35.35833,-430
35.36667,-430
35.37500,-430
35.38333,-431
35.39167,-431
35.40000,-431
35.40833,-431
35.41667,-431
35.42500,-431
35.43333,-431
35.44167,-431
35.45000,-431
35.45833,-431
35.46667,-432
35.47500,-432
35.48333,-432
35.49167,-432
35.50000,-432
35.50833,-431
35.51667,-431
35.52500,-431
35.53333,-432
35.54167,-432
35.55000,-432
35.55833,-432
35.56667,-432
35.57500,-431
35.58333,-431
35.59167,-431
35.60000,-431
35.60833,-432
35.61667,-432
35.62500,-432
35.63333,-432
35.64167,-432
35.65000,-432
35.65833,-433
35.66667,-433
35.67500,-433
35.68333,-433
35.69167,-433
35.70000,-433
35.70833,-433
35.71667,-433
35.72500,-433
35.73333,-433
35.74167,-433
35.75000,-433
35.75833,-433
35.76667,-433
35.77500,-433
35.78333,-433
35.79167,-434
35.80000,-434
35.80833,-434
35.81667,-434
35.82500,-434
35.83333,-434
35.84167,-434
35.85000,-434
35.85833,-434
35.86667,-434
35.87500,-434
35.88333,-434
35.89167,-434
35.90000,-434
35.90833,-435
35.91667,-435
35.92500,-435
35.93333,-434
35.94167,-434
35.95000,-434
35.95833,-434
35.96667,-434
35.97500,-434
35.98333,-434
35.99167,-434
36.00000,-435
36.00833,-435
36.01667,-435
36.02500,-435
36.03333,-435
36.04167,-435
36.05000,-436
36.05833,-436
36.06667,-436
36.07500,-436
36.08333,-436
36.09167,-436
36.10000,-436
36.10833,-436
36.11667,-436
36.12500,-435
36.13333,-436
36.14167,-436
36.15000,-436
36.15833,-436
36.16667,-436
36.17500,-437
36.18333,-437
36.19167,-437
36.20000,-437
36.20833,-437
36.21667,-438
36.22500,-438
36.23333,-438
36.24167,-438
36.25000,-439
36.25833,-439
36.26667,-439
36.27500,-439
36.28333,-439
36.29167,-439
36.30000,-439
36.30833,-439
36.31667,-439
36.32500,-439
36.33333,-440
36.34167,-440
36.35000,-440
36.35833,-440
36.36667,-440
36.37500,-440
36.38333,-440
36.39167,-440
36.40000,-440
36.40833,-441
36.41667,-441
36.42500,-441
36.43333,-441
36.44167,-441
36.45000,-441
36.45833,-442
36.46667,-442
36.47500,-442
36.48333,-442
36.49167,-442
36.50000,-442
36.50833,-441
36.51667,-441
36.52500,-440
36.53333,-440
36.54167,-440
36.55000,-440
36.55833,-440
36.56667,-440
36.57500,-440
36.58333,-440
36.59167,-440
36.60000,-440
36.60833,-440
36.61667,-440
36.62500,-441
36.63333,-441
36.64167,-441
36.65000,-441
36.65833,-440
36.66667,-440
36.67500,-440
36.68333,-440
36.69167,-439
36.70000,-439
36.70833,-438
36.71667,-438
36.72500,-438
36.73333,-437
36.74167,-437
36.75000,-437
36.75833,-437
36.76667,-436
36.77500,-436
36.78333,-435
36.79167,-435
36.80000,-435
36.80833,-435
36.81667,-434
36.82500,-434
36.83333,-434
36.84167,-433
36.85000,-433
36.85833,-432
36.86667,-432
36.87500,-431
36.88333,-430
36.89167,-430
36.90000,-429
36.90833,-428
36.91667,-428
36.92500,-427
36.93333,-426
36.94167,-426
36.95000,-425
36.95833,-425
36.96667,-425
36.97500,-424
36.98333,-424
36.99167,-423
37.00000,-423
37.00833,-422
37.01667,-422
37.02500,-421
37.03333,-421
37.04167,-420
37.05000,-420
37.05833,-419
37.06667,-418
37.07500,-418
37.08333,-417
37.09167,-417
37.10000,-416
37.10833,-415
37.11667,-414
37.12500,-414
37.13333,-414
37.14167,-413
37.15000,-413
37.15833,-412
37.16667,-412
37.17500,-411
37.18333,-410
37.19167,-410
37.20000,-410
37.20833,-410
37.21667,-410
37.22500,-410
37.23333,-409
37.24167,-409
37.25000,-409
37.25833,-409
37.26667,-409
37.27500,-409
37.28333,-409
37.29167,-408
37.30000,-408
37.30833,-409
37.31667,-409
37.32500,-409
37.33333,-408
37.34167,-408
37.35000,-408
37.35833,-408
37.36667,-409
37.37500,-409
37.38333,-410
37.39167,-410
37.40000,-410
37.40833,-410
37.41667,-411
37.42500,-411
37.43333,-412
37.44167,-412
37.45000,-412
37.45833,-413
37.46667,-413
37.47500,-414
37.48333,-414
37.49167,-415
37.50000,-415
37.50833,-416
37.51667,-416
37.52500,-417
37.53333,-418
37.54167,-418
37.55000,-419
37.55833,-419
37.56667,-420
37.57500,-420
37.58333,-421
37.59167,-422
37.60000,-423
37.60833,-423
37.61667,-424
37.62500,-425
37.63333,-426
37.64167,-427
37.65000,-428
37.65833,-428
37.66667,-429
37.67500,-430
37.68333,-431
37.69167,-432
37.70000,-432
37.70833,-433
37.71667,-434
37.72500,-435
37.73333,-436
37.74167,-436
37.75000,-437
37.75833,-438
37.76667,-438
37.77500,-439
37.78333,-440
37.79167,-441
37.80000,-442
37.80833,-442
37.81667,-443
37.82500,-443
37.83333,-444
37.84167,-445
37.85000,-445
37.85833,-446
37.86667,-447
37.87500,-447
37.88333,-448
37.89167,-449
37.90000,-449
37.90833,-450
37.91667,-451
37.92500,-451
37.93333,-452
37.94167,-452
37.95000,-453
37.95833,-453
37.96667,-453
37.97500,-454
37.98333,-454
37.99167,-454
38.00000,-455
38.00833,-455
38.01667,-455
38.02500,-456
38.03333,-456
38.04167,-457
38.05000,-458
38.05833,-458
38.06667,-458
38.07500,-458
38.08333,-459
38.09167,-459
38.10000,-460
38.10833,-460
38.11667,-460
38.12500,-461
38.13333,-461
38.14167,-461
38.15000,-461
38.15833,-461
38.16667,-461
38.17500,-461
38.18333,-461
38.19167,-461
38.20000,-462
38.20833,-462
38.21667,-462
38.22500,-463
38.23333,-463
38.24167,-464
38.25000,-464
38.25833,-464
38.26667,-464
38.27500,-464
38.28333,-464
38.29167,-464
38.30000,-465
38.30833,-465
38.31667,-466
38.32500,-466
38.33333,-466
38.34167,-466
38.35000,-466
38.35833,-466
38.36667,-466
38.37500,-466
38.38333,-466
38.39167,-466
38.40000,-466
38.40833,-466
38.41667,-466
38.42500,-466
38.43333,-466
38.44167,-466
38.45000,-466
38.45833,-466
38.46667,-466
38.47500,-465
38.48333,-466
38.49167,-466
38.50000,-466
38.50833,-466
38.51667,-467
38.52500,-467
38.53333,-467
38.54167,-467
38.55000,-467
38.55833,-467
38.56667,-468
38.57500,-468
38.58333,-468
38.59167,-468
38.60000,-468
38.60833,-468
38.61667,-468
38.62500,-468
38.63333,-468
38.64167,-468
38.65000,-469
38.65833,-469
38.66667,-469
38.67500,-469
38.68333,-469
38.69167,-469
38.70000,-469
38.70833,-469
38.71667,-470
38.72500,-470
38.73333,-470
38.74167,-470
38.75000,-470
38.75833,-470
38.76667,-470
38.77500,-470
38.78333,-470
38.79167,-470
38.80000,-470
38.80833,-470
38.81667,-470
38.82500,-471
38.83333,-471
38.84167,-471
38.85000,-471
38.85833,-471
38.86667,-471
38.87500,-471
38.88333,-472
38.89167,-472
38.90000,-472
38.90833,-473
38.91667,-473
38.92500,-473
38.93333,-473
38.94167,-473
38.95000,-473
38.95833,-473
38.96667,-473
38.97500,-473
38.98333,-474
38.99167,-474
39.00000,-474
39.00833,-474
39.01667,-474
39.02500,-474
39.03333,-474
39.04167,-474
39.05000,-475
39.05833,-475
39.06667,-475
39.07500,-475
39.08333,-474
39.09167,-474
39.10000,-475
39.10833,-475
39.11667,-475
39.12500,-475
39.13333,-475
39.14167,-475
39.15000,-476
39.15833,-476
39.16667,-477
39.17500,-477
39.18333,-477
39.19167,-477
39.20000,-477
39.20833,-477
39.21667,-477
39.22500,-477
39.23333,-477
39.24167,-477
39.25000,-477
39.25833,-477
39.26667,-477
39.27500,-477
39.28333,-477
39.29167,-477
39.30000,-477
39.30833,-478
39.31667,-478
39.32500,-478
39.33333,-478
39.34167,-478
39.35000,-478
39.35833,-479
39.36667,-479
39.37500,-479
39.38333,-479
39.39167,-479
39.40000,-479
39.40833,-479
39.41667,-479
39.42500,-480
39.43333,-480
39.44167,-480
39.45000,-479
39.45833,-479
39.46667,-479
39.47500,-480
39.48333,-480
39.49167,-480
39.50000,-480
39.50833,-480
39.51667,-480
39.52500,-480
39.53333,-480
39.54167,-480
39.55000,-480
39.55833,-480
39.56667,-480
39.57500,-480
39.58333,-480
39.59167,-480
39.60000,-480
39.60833,-481
39.61667,-481
39.62500,-481
39.63333,-481
39.64167,-482
39.65000,-482
39.65833,-482
39.66667,-482
39.67500,-482
39.68333,-482
39.69167,-483
39.70000,-483
39.70833,-483
39.71667,-483
39.72500,-483
39.73333,-483
39.74167,-483
39.75000,-483
39.75833,-483
39.76667,-483
39.77500,-483
39.78333,-483
39.79167,-484
39.80000,-484
39.80833,-484
39.81667,-484
39.82500,-484
39.83333,-485
39.84167,-485
39.85000,-485
39.85833,-485
39.86667,-485
39.87500,-485
39.88333,-485
39.89167,-485
39.90000,-485
39.90833,-484
39.91667,-485
39.92500,-485
39.93333,-486
39.94167,-486
39.95000,-486
39.95833,-486
39.96667,-486
39.97500,-487
39.98333,-487
39.99167,-487
40.00000,-487
40.00833,-487
40.01667,-487
40.02500,-487
40.03333,-487
40.04167,-487
40.05000,-487
40.05833,-487
40.06667,-487
40.07500,-487
40.08333,-487
40.09167,-487
40.10000,-487
40.10833,-487
40.11667,-487
40.12500,-487
40.13333,-488
40.14167,-487
40.15000,-487
40.15833,-488
40.16667,-488
40.17500,-488
40.18333,-488
40.19167,-489
40.20000,-489
40.20833,-489
40.21667,-488
40.22500,-489
40.23333,-489
40.24167,-489
40.25000,-489
40.25833,-489
40.26667,-489
40.27500,-489
40.28333,-489
40.29167,-489
40.30000,-489
40.30833,-489
40.31667,-489
40.32500,-489
40.33333,-490
40.34167,-490
40.35000,-490
40.35833,-490
40.36667,-490
40.37500,-490
40.38333,-490
40.39167,-490
40.40000,-490
40.40833,-490
40.41667,-490
40.42500,-490
40.43333,-491
40.44167,-491
40.45000,-491
40.45833,-491
40.46667,-491
40.47500,-491
40.48333,-491
40.49167,-491
40.50000,-491
40.50833,-491
40.51667,-492
40.52500,-492
40.53333,-492
40.54167,-492
40.55000,-491
40.55833,-491
40.56667,-491
40.57500,-491
40.58333,-491
40.59167,-491
40.60000,-492
40.60833,-492
40.61667,-492
40.62500,-492
40.63333,-493
40.64167,-493
40.65000,-493
40.65833,-493
40.66667,-494
40.67500,-494
40.68333,-494
40.69167,-494
40.70000,-494
40.70833,-494
40.71667,-494
40.72500,-494
40.73333,-494
40.74167,-494
40.75000,-494
40.75833,-495
40.76667,-495
40.77500,-495
40.78333,-495
40.79167,-495
40.80000,-495
40.80833,-495
40.81667,-495
40.82500,-495
40.83333,-495
40.84167,-495
40.85000,-496
40.85833,-496
40.86667,-496
40.87500,-496
40.88333,-496
40.89167,-496
40.90000,-496
40.90833,-496
40.91667,-496
40.92500,-496
40.93333,-496
40.94167,-496
40.95000,-496
40.95833,-497
40.96667,-497
40.97500,-497
40.98333,-497
40.99167,-497
41.00000,-496
41.00833,-496
41.01667,-497
41.02500,-497
41.03333,-497
41.04167,-497
41.05000,-497
41.05833,-497
41.06667,-497
41.07500,-497
41.08333,-497
41.09167,-498
41.10000,-498
41.10833,-498
41.11667,-498
41.12500,-499
41.13333,-499
41.14167,-499
41.15000,-499
41.15833,-499
41.16667,-499
41.17500,-499
41.18333,-499
41.19167,-500
41.20000,-500
41.20833,-500
41.21667,-499
41.22500,-499
41.23333,-499
41.24167,-499
41.25000,-499
41.25833,-499
41.26667,-500
41.27500,-500
41.28333,-500
41.29167,-499
41.30000,-500
41.30833,-500
41.31667,-501
41.32500,-501
41.33333,-501
41.34167,-501
41.35000,-501
41.35833,-501
41.36667,-501
41.37500,-501
41.38333,-502
41.39167,-502
41.40000,-501
41.40833,-502
41.41667,-502
41.42500,-502
41.43333,-502
41.44167,-502
41.45000,-502
41.45833,-502
41.46667,-502
41.47500,-502
41.48333,-502
41.49167,-503
41.50000,-503
41.50833,-504
41.51667,-504
41.52500,-504
41.53333,-504
41.54167,-504
41.55000,-504
41.55833,-504
41.56667,-504
41.57500,-504
41.58333,-504
41.59167,-504
41.60000,-505
41.60833,-505
41.61667,-505
41.62500,-505
41.63333,-505
41.64167,-505
41.65000,-505
41.65833,-505
41.66667,-505
41.67500,-505
41.68333,-505
41.69167,-505
41.70000,-505
41.70833,-506
41.71667,-506
41.72500,-506
41.73333,-506
41.74167,-507
41.75000,-507
41.75833,-507
41.76667,-507
41.77500,-507
41.78333,-508
41.79167,-507
41.80000,-508
41.80833,-508
41.81667,-508
41.82500,-508
41.83333,-508
41.84167,-507
41.85000,-508
41.85833,-508
41.86667,-508
41.87500,-508
41.88333,-508
41.89167,-508
41.90000,-508
41.90833,-508
41.91667,-508
41.92500,-508
41.93333,-509
41.94167,-509
41.95000,-509
41.95833,-509
41.96667,-509
41.97500,-509
41.98333,-509
41.99167,-509
42.00000,-510
42.00833,-510
42.01667,-510
42.02500,-510
42.03333,-510
42.04167,-511
42.05000,-511
42.05833,-511
42.06667,-511
42.07500,-510
42.08333,-510
42.09167,-510
42.10000,-510
42.10833,-510
42.11667,-510
42.12500,-510
42.13333,-510
42.14167,-511
42.15000,-511
42.15833,-511
42.16667,-511
42.17500,-511
42.18333,-511
42.19167,-511
42.20000,-511
42.20833,-512
42.21667,-512
42.22500,-512
42.23333,-512
42.24167,-512
42.25000,-513
42.25833,-513
42.26667,-513
42.27500,-513
42.28333,-513
42.29167,-513
42.30000,-513
42.30833,-513
42.31667,-513
42.32500,-513
42.33333,-513
42.34167,-513
42.35000,-513
42.35833,-512
42.36667,-512
42.37500,-512
42.38333,-513
42.39167,-513
42.40000,-513
42.40833,-513
42.41667,-513
42.42500,-513
42.43333,-513
42.44167,-513
42.45000,-513
42.45833,-513
42.46667,-513
42.47500,-513
42.48333,-512
42.49167,-512
42.50000,-513
42.50833,-513
42.51667,-513
42.52500,-513
42.53333,-513
42.54167,-514
42.55000,-514
42.55833,-514
42.56667,-514
42.57500,-514
42.58333,-514
42.59167,-514
42.60000,-513
42.60833,-513
42.61667,-513
42.62500,-512
42.63333,-512
42.64167,-513
42.65000,-513
42.65833,-514
42.66667,-514
42.67500,-515
42.68333,-515
42.69167,-515
42.70000,-515
42.70833,-516
42.71667,-516
42.72500,-516
42.73333,-517
42.74167,-517
42.75000,-517
42.75833,-517
42.76667,-517
42.77500,-517
42.78333,-517
42.79167,-517
42.80000,-518
42.80833,-518
42.81667,-517
42.82500,-517
42.83333,-517
42.84167,-517
42.85000,-518
42.85833,-518
42.86667,-518
42.87500,-518
42.88333,-519
42.89167,-519
42.90000,-519
42.90833,-519
42.91667,-519
42.92500,-519
42.93333,-519
42.94167,-520
42.95000,-519
42.95833,-519
42.96667,-519
42.97500,-519
42.98333,-519
42.99167,-520
43.00000,-520
43.00833,-520
43.01667,-520
43.02500,-521
43.03333,-521
43.04167,-521
43.05000,-522
43.05833,-522
43.06667,-522
43.07500,-522
43.08333,-522
43.09167,-523
43.10000,-523
43.10833,-523
43.11667,-523
43.12500,-523
43.13333,-523
43.14167,-523
43.15000,-523
43.15833,-524
43.16667,-524
43.17500,-524
43.18333,-524
43.19167,-524
43.20000,-525
43.20833,-524
43.21667,-524
43.22500,-524
43.23333,-525
43.24167,-525
43.25000,-525
43.25833,-526
43.26667,-526
43.27500,-526
43.28333,-526
43.29167,-527
43.30000,-527
43.30833,-527
43.31667,-527
43.32500,-527
43.33333,-527
43.34167,-527
43.35000,-527
43.35833,-527
43.36667,-527
43.37500,-527
43.38333,-527
43.39167,-528
43.40000,-528
43.40833,-528
43.41667,-528
43.42500,-528
43.43333,-528
43.44167,-528
43.45000,-529
43.45833,-528
43.46667,-528
43.47500,-529
43.48333,-529
43.49167,-529
43.50000,-529
43.50833,-529
43.51667,-530
43.52500,-530
43.53333,-530
43.54167,-530
43.55000,-530
43.55833,-530
43.56667,-530
43.57500,-530
43.58333,-530
43.59167,-530
43.60000,-530
43.60833,-530
43.61667,-530
43.62500,-530
43.63333,-531
43.64167,-531
43.65000,-531
43.65833,-531
43.66667,-531
43.67500,-531
43.68333,-532
43.69167,-531
43.70000,-532
43.70833,-532
43.71667,-532
43.72500,-532
43.73333,-532
43.74167,-532
43.75000,-532
43.75833,-532
43.76667,-532
43.77500,-532
43.78333,-533
43.79167,-533
43.80000,-533
43.80833,-533
43.81667,-533
43.82500,-533
43.83333,-533
43.84167,-533
43.85000,-533
43.85833,-533
43.86667,-533
43.87500,-533
43.88333,-533
43.89167,-533
43.90000,-533
43.90833,-533
43.91667,-533
43.92500,-533
43.93333,-533
43.94167,-534
43.95000,-534
43.95833,-533
43.96667,-533
43.97500,-533
43.98333,-533
43.99167,-533
44.00000,-534
44.00833,-534
44.01667,-534
44.02500,-535
44.03333,-535
44.04167,-536
44.05000,-536
44.05833,-536
44.06667,-536
44.07500,-536
44.08333,-536
44.09167,-536
44.10000,-536
44.10833,-535
44.11667,-535
44.12500,-536
44.13333,-536
44.14167,-536
44.15000,-536
44.15833,-536
44.16667,-537
44.17500,-537
44.18333,-537
44.19167,-537
44.20000,-537
44.20833,-537
44.21667,-538
44.22500,-538
44.23333,-538
44.24167,-538
44.25000,-538
44.25833,-538
44.26667,-538
44.27500,-538
44.28333,-538
44.29167,-539
44.30000,-539
44.30833,-539
44.31667,-539
44.32500,-538
44.33333,-538
44.34167,-538
44.35000,-538
44.35833,-538
44.36667,-538
44.37500,-538
44.38333,-538
44.39167,-538
44.40000,-538
44.40833,-538
44.41667,-539
44.42500,-539
44.43333,-539
44.44167,-539
44.45000,-539
44.45833,-539
44.46667,-540
44.47500,-540
44.48333,-540
44.49167,-539
44.50000,-539
44.50833,-540
44.51667,-540
44.52500,-540
44.53333,-540
44.54167,-540
44.55000,-541
44.55833,-541
44.56667,-541
44.57500,-541
44.58333,-541
44.59167,-541
44.60000,-541
44.60833,-541
44.61667,-541
44.62500,-542
44.63333,-542
44.64167,-542
44.65000,-542
44.65833,-542
44.66667,-542
44.67500,-542
44.68333,-543
44.69167,-543
44.70000,-543
44.70833,-543
44.71667,-543
44.72500,-543
44.73333,-544
44.74167,-544
44.75000,-544
44.75833,-544
44.76667,-545
44.77500,-545
44.78333,-545
44.79167,-545
44.80000,-545
44.80833,-545
44.81667,-545
44.82500,-545
44.83333,-546
44.84167,-546
44.85000,-546
44.85833,-546
44.86667,-546
44.87500,-546
44.88333,-547
44.89167,-547
44.90000,-547
44.90833,-547
44.91667,-547
44.92500,-547
44.93333,-548
44.94167,-548
44.95000,-548
44.95833,-548
44.96667,-549
44.97500,-549
44.98333,-549
44.99167,-549
45.00000,-549

