[Header]
Application Name,LabSolutions
Version,5.97 SP1
Data File Name,C:\Users\cremerlab\Desktop\griffin\2021-03-26_calibration\2021-03-26_calibration_3262021_001_001.lcd
Output Date,3/26/2021
Output Time,6:24:34 PM

[File Information]
Type,Data File
Generated,3/26/2021 5:44:14 PM
Generated by,System Administrator
Modified,3/26/2021 6:24:34 PM
Modified by,System Administrator

[Sample Information]
Operator Name,System Administrator
Acquired,3/26/2021 5:44:33 PM
Sample Type,1:Standard
Level,1
Sample Name,2021-03-26_calibration_30mM
Sample ID,001
ISTD Amount1,1
ISTD Amount2,1
ISTD Amount3,1
ISTD Amount4,1
ISTD Amount5,1
ISTD Amount6,1
ISTD Amount7,1
ISTD Amount8,1
ISTD Amount9,1
ISTD Amount10,1
ISTD Amount11,1
ISTD Amount12,1
ISTD Amount13,1
ISTD Amount14,1
ISTD Amount15,1
ISTD Amount16,1
ISTD Amount17,1
ISTD Amount18,1
ISTD Amount19,1
ISTD Amount20,1
ISTD Amount21,1
ISTD Amount22,1
ISTD Amount23,1
ISTD Amount24,1
ISTD Amount25,1
ISTD Amount26,1
ISTD Amount27,1
ISTD Amount28,1
ISTD Amount29,1
ISTD Amount30,1
ISTD Amount31,1
ISTD Amount32,1
Sample Amount,1
Dilution Factor,1
Vial#,1
Injection Volume,20

[Original Files]
Data File,C:\Users\cremerlab\Desktop\griffin\2021-03-26_calibration\2021-03-26_calibration_3262021_001_001.lcd
Method File,C:\LabSolutions\Data\Project1\organicacidsetc2.lcm
Batch File,C:\Users\cremerlab\Desktop\griffin\2021-03-26_calibration\2021-03-26_calibration.lcb
Report Format File,c:\LabSolutions\System\DEFAULT.lsr

[File Description]


[Configuration]
Instrument Name,HPLC-PC-Instrument1
Instrument #,1
Line #,1
# of Detectors,2
Detector ID,Detector A,Detector B
Detector Name,Detector A,Detector B
# of Channels,1,1

[LC Chromatogram(Detector B-Ch1)]
Interval(msec),500
# of Points,4801
Start Time(min),0.000
End Time(min),40.000
Intensity Units,mV
Intensity Multiplier,0.001
R.Time (min),Intensity
0.00000,676
0.00833,676
0.01667,18
0.02500,51
0.03333,84
0.04167,118
0.05000,153
0.05833,188
0.06667,224
0.07500,261
0.08333,298
0.09167,337
0.10000,376
0.10833,415
0.11667,455
0.12500,496
0.13333,537
0.14167,579
0.15000,621
0.15833,664
0.16667,706
0.17500,749
0.18333,793
0.19167,836
0.20000,880
0.20833,924
0.21667,968
0.22500,1013
0.23333,1057
0.24167,1101
0.25000,1144
0.25833,1187
0.26667,1230
0.27500,1273
0.28333,1315
0.29167,1357
0.30000,1398
0.30833,1438
0.31667,1477
0.32500,1516
0.33333,1553
0.34167,1589
0.35000,1625
0.35833,1659
0.36667,1693
0.37500,1725
0.38333,1755
0.39167,1785
0.40000,1813
0.40833,1840
0.41667,1865
0.42500,1889
0.43333,1911
0.44167,1932
0.45000,1951
0.45833,1968
0.46667,1984
0.47500,1998
0.48333,2010
0.49167,2021
0.50000,2030
0.50833,2037
0.51667,2043
0.52500,2047
0.53333,2049
0.54167,2049
0.55000,2048
0.55833,2046
0.56667,2042
0.57500,2036
0.58333,2029
0.59167,2020
0.60000,2010
0.60833,1998
0.61667,1986
0.62500,1972
0.63333,1957
0.64167,1940
0.65000,1923
0.65833,1904
0.66667,1884
0.67500,1863
0.68333,1842
0.69167,1819
0.70000,1796
0.70833,1771
0.71667,1747
0.72500,1722
0.73333,1697
0.74167,1671
0.75000,1645
0.75833,1618
0.76667,1591
0.77500,1564
0.78333,1537
0.79167,1510
0.80000,1483
0.80833,1455
0.81667,1427
0.82500,1400
0.83333,1372
0.84167,1345
0.85000,1318
0.85833,1292
0.86667,1266
0.87500,1240
0.88333,1214
0.89167,1188
0.90000,1163
0.90833,1139
0.91667,1115
0.92500,1091
0.93333,1068
0.94167,1046
0.95000,1024
0.95833,1002
0.96667,982
0.97500,961
0.98333,941
0.99167,922
1.00000,903
1.00833,884
1.01667,866
1.02500,849
1.03333,833
1.04167,817
1.05000,802
1.05833,788
1.06667,774
1.07500,761
1.08333,748
1.09167,735
1.10000,724
1.10833,712
1.11667,702
1.12500,691
1.13333,681
1.14167,671
1.15000,662
1.15833,654
1.16667,646
1.17500,639
1.18333,631
1.19167,625
1.20000,618
1.20833,612
1.21667,607
1.22500,602
1.23333,597
1.24167,592
1.25000,588
1.25833,585
1.26667,581
1.27500,578
1.28333,574
1.29167,572
1.30000,569
1.30833,566
1.31667,565
1.32500,563
1.33333,561
1.34167,560
1.35000,559
1.35833,557
1.36667,556
1.37500,556
1.38333,556
1.39167,555
1.40000,555
1.40833,555
1.41667,556
1.42500,556
1.43333,557
1.44167,557
1.45000,558
1.45833,558
1.46667,559
1.47500,559
1.48333,560
1.49167,561
1.50000,562
1.50833,564
1.51667,565
1.52500,567
1.53333,569
1.54167,570
1.55000,572
1.55833,574
1.56667,575
1.57500,577
1.58333,578
1.59167,580
1.60000,582
1.60833,584
1.61667,586
1.62500,588
1.63333,590
1.64167,593
1.65000,595
1.65833,597
1.66667,600
1.67500,602
1.68333,605
1.69167,607
1.70000,610
1.70833,612
1.71667,615
1.72500,618
1.73333,620
1.74167,623
1.75000,625
1.75833,628
1.76667,631
1.77500,633
1.78333,636
1.79167,639
1.80000,641
1.80833,644
1.81667,647
1.82500,650
1.83333,653
1.84167,656
1.85000,659
1.85833,662
1.86667,665
1.87500,668
1.88333,671
1.89167,674
1.90000,677
1.90833,680
1.91667,683
1.92500,686
1.93333,689
1.94167,692
1.95000,696
1.95833,699
1.96667,702
1.97500,705
1.98333,708
1.99167,711
2.00000,714
2.00833,717
2.01667,721
2.02500,724
2.03333,727
2.04167,730
2.05000,734
2.05833,737
2.06667,740
2.07500,743
2.08333,746
2.09167,749
2.10000,752
2.10833,756
2.11667,758
2.12500,761
2.13333,765
2.14167,768
2.15000,771
2.15833,774
2.16667,778
2.17500,781
2.18333,784
2.19167,787
2.20000,789
2.20833,792
2.21667,795
2.22500,798
2.23333,801
2.24167,804
2.25000,807
2.25833,811
2.26667,813
2.27500,816
2.28333,819
2.29167,822
2.30000,825
2.30833,827
2.31667,830
2.32500,833
2.33333,835
2.34167,838
2.35000,841
2.35833,844
2.36667,847
2.37500,850
2.38333,853
2.39167,855
2.40000,857
2.40833,860
2.41667,863
2.42500,865
2.43333,868
2.44167,871
2.45000,873
2.45833,876
2.46667,878
2.47500,881
2.48333,883
2.49167,886
2.50000,888
2.50833,890
2.51667,893
2.52500,895
2.53333,898
2.54167,901
2.55000,903
2.55833,905
2.56667,907
2.57500,910
2.58333,912
2.59167,915
2.60000,917
2.60833,919
2.61667,921
2.62500,923
2.63333,925
2.64167,927
2.65000,930
2.65833,932
2.66667,934
2.67500,936
2.68333,939
2.69167,941
2.70000,943
2.70833,945
2.71667,947
2.72500,949
2.73333,950
2.74167,952
2.75000,954
2.75833,956
2.76667,957
2.77500,959
2.78333,961
2.79167,963
2.80000,965
2.80833,967
2.81667,969
2.82500,970
2.83333,972
2.84167,974
2.85000,976
2.85833,978
2.86667,980
2.87500,981
2.88333,983
2.89167,985
2.90000,987
2.90833,989
2.91667,990
2.92500,992
2.93333,993
2.94167,995
2.95000,996
2.95833,997
2.96667,999
2.97500,1000
2.98333,1002
2.99167,1003
3.00000,1005
3.00833,1006
3.01667,1008
3.02500,1010
3.03333,1011
3.04167,1012
3.05000,1014
3.05833,1015
3.06667,1017
3.07500,1019
3.08333,1021
3.09167,1022
3.10000,1024
3.10833,1025
3.11667,1026
3.12500,1028
3.13333,1029
3.14167,1031
3.15000,1032
3.15833,1034
3.16667,1035
3.17500,1037
3.18333,1038
3.19167,1039
3.20000,1040
3.20833,1041
3.21667,1042
3.22500,1044
3.23333,1045
3.24167,1046
3.25000,1047
3.25833,1049
3.26667,1050
3.27500,1052
3.28333,1053
3.29167,1054
3.30000,1055
3.30833,1057
3.31667,1058
3.32500,1059
3.33333,1061
3.34167,1062
3.35000,1063
3.35833,1064
3.36667,1065
3.37500,1066
3.38333,1067
3.39167,1068
3.40000,1069
3.40833,1070
3.41667,1071
3.42500,1072
3.43333,1073
3.44167,1075
3.45000,1076
3.45833,1077
3.46667,1079
3.47500,1080
3.48333,1081
3.49167,1082
3.50000,1083
3.50833,1084
3.51667,1085
3.52500,1086
3.53333,1087
3.54167,1088
3.55000,1089
3.55833,1090
3.56667,1091
3.57500,1092
3.58333,1093
3.59167,1094
3.60000,1095
3.60833,1096
3.61667,1097
3.62500,1098
3.63333,1099
3.64167,1100
3.65000,1101
3.65833,1101
3.66667,1102
3.67500,1103
3.68333,1104
3.69167,1105
3.70000,1106
3.70833,1107
3.71667,1108
3.72500,1109
3.73333,1110
3.74167,1111
3.75000,1112
3.75833,1113
3.76667,1114
3.77500,1116
3.78333,1116
3.79167,1117
3.80000,1118
3.80833,1119
3.81667,1119
3.82500,1120
3.83333,1122
3.84167,1123
3.85000,1124
3.85833,1125
3.86667,1126
3.87500,1126
3.88333,1127
3.89167,1128
3.90000,1128
3.90833,1129
3.91667,1130
3.92500,1131
3.93333,1132
3.94167,1133
3.95000,1133
3.95833,1134
3.96667,1136
3.97500,1137
3.98333,1138
3.99167,1139
4.00000,1140
4.00833,1141
4.01667,1141
4.02500,1142
4.03333,1142
4.04167,1143
4.05000,1143
4.05833,1144
4.06667,1144
4.07500,1145
4.08333,1146
4.09167,1147
4.10000,1148
4.10833,1149
4.11667,1150
4.12500,1151
4.13333,1151
4.14167,1152
4.15000,1153
4.15833,1154
4.16667,1154
4.17500,1155
4.18333,1156
4.19167,1157
4.20000,1158
4.20833,1158
4.21667,1159
4.22500,1160
4.23333,1161
4.24167,1162
4.25000,1163
4.25833,1164
4.26667,1164
4.27500,1165
4.28333,1165
4.29167,1166
4.30000,1166
4.30833,1167
4.31667,1168
4.32500,1169
4.33333,1170
4.34167,1171
4.35000,1171
4.35833,1172
4.36667,1172
4.37500,1173
4.38333,1174
4.39167,1174
4.40000,1175
4.40833,1175
4.41667,1175
4.42500,1176
4.43333,1177
4.44167,1178
4.45000,1179
4.45833,1179
4.46667,1180
4.47500,1181
4.48333,1181
4.49167,1182
4.50000,1182
4.50833,1183
4.51667,1184
4.52500,1185
4.53333,1185
4.54167,1186
4.55000,1187
4.55833,1187
4.56667,1188
4.57500,1189
4.58333,1189
4.59167,1190
4.60000,1190
4.60833,1191
4.61667,1192
4.62500,1192
4.63333,1193
4.64167,1194
4.65000,1195
4.65833,1195
4.66667,1196
4.67500,1196
4.68333,1197
4.69167,1198
4.70000,1199
4.70833,1199
4.71667,1200
4.72500,1202
4.73333,1203
4.74167,1203
4.75000,1204
4.75833,1205
4.76667,1205
4.77500,1206
4.78333,1206
4.79167,1207
4.80000,1207
4.80833,1207
4.81667,1207
4.82500,1208
4.83333,1208
4.84167,1209
4.85000,1209
4.85833,1210
4.86667,1211
4.87500,1212
4.88333,1212
4.89167,1213
4.90000,1213
4.90833,1214
4.91667,1215
4.92500,1215
4.93333,1216
4.94167,1217
4.95000,1218
4.95833,1218
4.96667,1219
4.97500,1220
4.98333,1220
4.99167,1221
5.00000,1221
5.00833,1221
5.01667,1222
5.02500,1222
5.03333,1223
5.04167,1223
5.05000,1224
5.05833,1225
5.06667,1226
5.07500,1226
5.08333,1226
5.09167,1227
5.10000,1228
5.10833,1228
5.11667,1228
5.12500,1229
5.13333,1230
5.14167,1231
5.15000,1232
5.15833,1232
5.16667,1233
5.17500,1233
5.18333,1234
5.19167,1235
5.20000,1235
5.20833,1236
5.21667,1236
5.22500,1236
5.23333,1237
5.24167,1237
5.25000,1237
5.25833,1238
5.26667,1238
5.27500,1239
5.28333,1239
5.29167,1240
5.30000,1241
5.30833,1241
5.31667,1242
5.32500,1242
5.33333,1243
5.34167,1243
5.35000,1244
5.35833,1244
5.36667,1245
5.37500,1246
5.38333,1246
5.39167,1247
5.40000,1247
5.40833,1247
5.41667,1248
5.42500,1248
5.43333,1249
5.44167,1250
5.45000,1251
5.45833,1251
5.46667,1252
5.47500,1252
5.48333,1253
5.49167,1253
5.50000,1254
5.50833,1254
5.51667,1254
5.52500,1255
5.53333,1256
5.54167,1256
5.55000,1256
5.55833,1256
5.56667,1257
5.57500,1257
5.58333,1258
5.59167,1259
5.60000,1259
5.60833,1259
5.61667,1260
5.62500,1260
5.63333,1261
5.64167,1261
5.65000,1262
5.65833,1262
5.66667,1262
5.67500,1262
5.68333,1263
5.69167,1264
5.70000,1264
5.70833,1265
5.71667,1265
5.72500,1266
5.73333,1266
5.74167,1266
5.75000,1267
5.75833,1267
5.76667,1267
5.77500,1268
5.78333,1268
5.79167,1269
5.80000,1269
5.80833,1269
5.81667,1270
5.82500,1270
5.83333,1271
5.84167,1272
5.85000,1272
5.85833,1273
5.86667,1274
5.87500,1274
5.88333,1274
5.89167,1274
5.90000,1274
5.90833,1274
5.91667,1274
5.92500,1275
5.93333,1276
5.94167,1276
5.95000,1276
5.95833,1276
5.96667,1277
5.97500,1277
5.98333,1278
5.99167,1278
6.00000,1279
6.00833,1279
6.01667,1280
6.02500,1280
6.03333,1280
6.04167,1280
6.05000,1280
6.05833,1280
6.06667,1280
6.07500,1280
6.08333,1281
6.09167,1281
6.10000,1282
6.10833,1283
6.11667,1283
6.12500,1284
6.13333,1284
6.14167,1285
6.15000,1285
6.15833,1286
6.16667,1286
6.17500,1287
6.18333,1287
6.19167,1287
6.20000,1288
6.20833,1289
6.21667,1289
6.22500,1290
6.23333,1291
6.24167,1292
6.25000,1293
6.25833,1294
6.26667,1295
6.27500,1295
6.28333,1296
6.29167,1298
6.30000,1299
6.30833,1300
6.31667,1302
6.32500,1303
6.33333,1304
6.34167,1305
6.35000,1307
6.35833,1308
6.36667,1309
6.37500,1311
6.38333,1313
6.39167,1314
6.40000,1316
6.40833,1318
6.41667,1320
6.42500,1322
6.43333,1324
6.44167,1326
6.45000,1327
6.45833,1329
6.46667,1331
6.47500,1333
6.48333,1336
6.49167,1338
6.50000,1341
6.50833,1343
6.51667,1346
6.52500,1348
6.53333,1350
6.54167,1353
6.55000,1355
6.55833,1358
6.56667,1362
6.57500,1365
6.58333,1368
6.59167,1371
6.60000,1373
6.60833,1376
6.61667,1379
6.62500,1382
6.63333,1386
6.64167,1389
6.65000,1392
6.65833,1396
6.66667,1399
6.67500,1402
6.68333,1405
6.69167,1408
6.70000,1411
6.70833,1414
6.71667,1417
6.72500,1420
6.73333,1424
6.74167,1427
6.75000,1430
6.75833,1433
6.76667,1436
6.77500,1440
6.78333,1443
6.79167,1446
6.80000,1449
6.80833,1452
6.81667,1455
6.82500,1457
6.83333,1460
6.84167,1462
6.85000,1465
6.85833,1467
6.86667,1470
6.87500,1472
6.88333,1474
6.89167,1476
6.90000,1479
6.90833,1481
6.91667,1483
6.92500,1484
6.93333,1485
6.94167,1486
6.95000,1488
6.95833,1489
6.96667,1490
6.97500,1491
6.98333,1492
6.99167,1493
7.00000,1493
7.00833,1494
7.01667,1494
7.02500,1494
7.03333,1495
7.04167,1495
7.05000,1495
7.05833,1495
7.06667,1494
7.07500,1494
7.08333,1493
7.09167,1493
7.10000,1492
7.10833,1491
7.11667,1490
7.12500,1489
7.13333,1488
7.14167,1487
7.15000,1485
7.15833,1484
7.16667,1483
7.17500,1481
7.18333,1479
7.19167,1478
7.20000,1476
7.20833,1475
7.21667,1473
7.22500,1472
7.23333,1470
7.24167,1468
7.25000,1466
7.25833,1463
7.26667,1461
7.27500,1459
7.28333,1457
7.29167,1455
7.30000,1453
7.30833,1451
7.31667,1449
7.32500,1447
7.33333,1444
7.34167,1442
7.35000,1440
7.35833,1437
7.36667,1435
7.37500,1433
7.38333,1431
7.39167,1429
7.40000,1427
7.40833,1425
7.41667,1423
7.42500,1421
7.43333,1419
7.44167,1417
7.45000,1415
7.45833,1412
7.46667,1410
7.47500,1408
7.48333,1406
7.49167,1404
7.50000,1403
7.50833,1401
7.51667,1399
7.52500,1398
7.53333,1396
7.54167,1395
7.55000,1393
7.55833,1391
7.56667,1390
7.57500,1388
7.58333,1387
7.59167,1385
7.60000,1384
7.60833,1382
7.61667,1381
7.62500,1380
7.63333,1378
7.64167,1377
7.65000,1376
7.65833,1375
7.66667,1373
7.67500,1372
7.68333,1372
7.69167,1371
7.70000,1370
7.70833,1370
7.71667,1369
7.72500,1369
7.73333,1368
7.74167,1367
7.75000,1366
7.75833,1366
7.76667,1365
7.77500,1364
7.78333,1364
7.79167,1364
7.80000,1363
7.80833,1362
7.81667,1362
7.82500,1362
7.83333,1361
7.84167,1361
7.85000,1360
7.85833,1360
7.86667,1359
7.87500,1359
7.88333,1359
7.89167,1358
7.90000,1358
7.90833,1358
7.91667,1358
7.92500,1358
7.93333,1358
7.94167,1358
7.95000,1358
7.95833,1357
7.96667,1357
7.97500,1357
7.98333,1356
7.99167,1356
8.00000,1356
8.00833,1357
8.01667,1357
8.02500,1357
8.03333,1357
8.04167,1357
8.05000,1357
8.05833,1357
8.06667,1358
8.07500,1358
8.08333,1358
8.09167,1359
8.10000,1359
8.10833,1359
8.11667,1359
8.12500,1359
8.13333,1358
8.14167,1358
8.15000,1358
8.15833,1358
8.16667,1358
8.17500,1358
8.18333,1358
8.19167,1358
8.20000,1359
8.20833,1359
8.21667,1359
8.22500,1359
8.23333,1359
8.24167,1359
8.25000,1360
8.25833,1360
8.26667,1360
8.27500,1360
8.28333,1360
8.29167,1360
8.30000,1360
8.30833,1361
8.31667,1361
8.32500,1361
8.33333,1361
8.34167,1361
8.35000,1361
8.35833,1361
8.36667,1362
8.37500,1362
8.38333,1363
8.39167,1363
8.40000,1364
8.40833,1364
8.41667,1364
8.42500,1364
8.43333,1365
8.44167,1365
8.45000,1364
8.45833,1364
8.46667,1364
8.47500,1364
8.48333,1364
8.49167,1364
8.50000,1364
8.50833,1364
8.51667,1365
8.52500,1365
8.53333,1366
8.54167,1366
8.55000,1366
8.55833,1366
8.56667,1366
8.57500,1366
8.58333,1366
8.59167,1367
8.60000,1367
8.60833,1367
8.61667,1368
8.62500,1368
8.63333,1368
8.64167,1368
8.65000,1369
8.65833,1369
8.66667,1370
8.67500,1370
8.68333,1370
8.69167,1370
8.70000,1370
8.70833,1370
8.71667,1370
8.72500,1370
8.73333,1370
8.74167,1370
8.75000,1371
8.75833,1372
8.76667,1372
8.77500,1372
8.78333,1373
8.79167,1373
8.80000,1373
8.80833,1373
8.81667,1373
8.82500,1373
8.83333,1374
8.84167,1374
8.85000,1374
8.85833,1375
8.86667,1375
8.87500,1375
8.88333,1375
8.89167,1375
8.90000,1375
8.90833,1375
8.91667,1375
8.92500,1375
8.93333,1376
8.94167,1376
8.95000,1376
8.95833,1376
8.96667,1377
8.97500,1377
8.98333,1378
8.99167,1378
9.00000,1378
9.00833,1379
9.01667,1379
9.02500,1379
9.03333,1379
9.04167,1379
9.05000,1379
9.05833,1380
9.06667,1380
9.07500,1380
9.08333,1380
9.09167,1380
9.10000,1381
9.10833,1382
9.11667,1382
9.12500,1383
9.13333,1383
9.14167,1383
9.15000,1383
9.15833,1384
9.16667,1384
9.17500,1384
9.18333,1384
9.19167,1385
9.20000,1385
9.20833,1385
9.21667,1385
9.22500,1386
9.23333,1386
9.24167,1387
9.25000,1387
9.25833,1388
9.26667,1388
9.27500,1388
9.28333,1389
9.29167,1389
9.30000,1389
9.30833,1389
9.31667,1389
9.32500,1389
9.33333,1390
9.34167,1390
9.35000,1391
9.35833,1391
9.36667,1391
9.37500,1392
9.38333,1392
9.39167,1392
9.40000,1392
9.40833,1392
9.41667,1392
9.42500,1392
9.43333,1393
9.44167,1393
9.45000,1393
9.45833,1393
9.46667,1393
9.47500,1394
9.48333,1394
9.49167,1394
9.50000,1395
9.50833,1395
9.51667,1396
9.52500,1396
9.53333,1396
9.54167,1396
9.55000,1396
9.55833,1397
9.56667,1397
9.57500,1397
9.58333,1398
9.59167,1398
9.60000,1399
9.60833,1399
9.61667,1399
9.62500,1399
9.63333,1399
9.64167,1399
9.65000,1399
9.65833,1399
9.66667,1400
9.67500,1400
9.68333,1400
9.69167,1400
9.70000,1400
9.70833,1400
9.71667,1401
9.72500,1401
9.73333,1401
9.74167,1401
9.75000,1401
9.75833,1401
9.76667,1402
9.77500,1402
9.78333,1402
9.79167,1402
9.80000,1402
9.80833,1402
9.81667,1402
9.82500,1403
9.83333,1403
9.84167,1403
9.85000,1404
9.85833,1404
9.86667,1404
9.87500,1404
9.88333,1405
9.89167,1405
9.90000,1405
9.90833,1406
9.91667,1406
9.92500,1406
9.93333,1406
9.94167,1406
9.95000,1406
9.95833,1407
9.96667,1407
9.97500,1407
9.98333,1407
9.99167,1407
10.00000,1408
10.00833,1408
10.01667,1408
10.02500,1408
10.03333,1408
10.04167,1408
10.05000,1408
10.05833,1408
10.06667,1408
10.07500,1408
10.08333,1408
10.09167,1409
10.10000,1409
10.10833,1409
10.11667,1409
10.12500,1409
10.13333,1409
10.14167,1410
10.15000,1410
10.15833,1410
10.16667,1410
10.17500,1410
10.18333,1411
10.19167,1411
10.20000,1411
10.20833,1411
10.21667,1411
10.22500,1412
10.23333,1412
10.24167,1412
10.25000,1412
10.25833,1412
10.26667,1413
10.27500,1413
10.28333,1414
10.29167,1414
10.30000,1415
10.30833,1415
10.31667,1415
10.32500,1415
10.33333,1415
10.34167,1416
10.35000,1416
10.35833,1416
10.36667,1416
10.37500,1416
10.38333,1416
10.39167,1416
10.40000,1416
10.40833,1417
10.41667,1417
10.42500,1417
10.43333,1417
10.44167,1418
10.45000,1418
10.45833,1418
10.46667,1417
10.47500,1417
10.48333,1417
10.49167,1417
10.50000,1417
10.50833,1417
10.51667,1416
10.52500,1416
10.53333,1415
10.54167,1415
10.55000,1414
10.55833,1413
10.56667,1411
10.57500,1409
10.58333,1406
10.59167,1403
10.60000,1398
10.60833,1391
10.61667,1381
10.62500,1368
10.63333,1350
10.64167,1324
10.65000,1290
10.65833,1243
10.66667,1180
10.67500,1097
10.68333,990
10.69167,852
10.70000,676
10.70833,456
10.71667,184
10.72500,-148
10.73333,-548
10.74167,-1024
10.75000,-1582
10.75833,-2228
10.76667,-2965
10.77500,-3794
10.78333,-4715
10.79167,-5723
10.80000,-6811
10.80833,-7967
10.81667,-9179
10.82500,-10428
10.83333,-11698
10.84167,-12966
10.85000,-14213
10.85833,-15417
10.86667,-16557
10.87500,-17614
10.88333,-18569
10.89167,-19408
10.90000,-20119
10.90833,-20691
10.91667,-21119
10.92500,-21400
10.93333,-21533
10.94167,-21522
10.95000,-21372
10.95833,-21090
10.96667,-20686
10.97500,-20171
10.98333,-19557
10.99167,-18856
11.00000,-18082
11.00833,-17247
11.01667,-16364
11.02500,-15447
11.03333,-14506
11.04167,-13553
11.05000,-12599
11.05833,-11653
11.06667,-10723
11.07500,-9816
11.08333,-8938
11.09167,-8095
11.10000,-7291
11.10833,-6527
11.11667,-5808
11.12500,-5134
11.13333,-4507
11.14167,-3925
11.15000,-3389
11.15833,-2896
11.16667,-2447
11.17500,-2038
11.18333,-1668
11.19167,-1334
11.20000,-1034
11.20833,-766
11.21667,-526
11.22500,-313
11.23333,-125
11.24167,42
11.25000,189
11.25833,319
11.26667,433
11.27500,533
11.28333,620
11.29167,697
11.30000,765
11.30833,824
11.31667,875
11.32500,921
11.33333,961
11.34167,996
11.35000,1027
11.35833,1054
11.36667,1079
11.37500,1100
11.38333,1119
11.39167,1137
11.40000,1152
11.40833,1167
11.41667,1180
11.42500,1192
11.43333,1203
11.44167,1213
11.45000,1223
11.45833,1231
11.46667,1239
11.47500,1247
11.48333,1254
11.49167,1260
11.50000,1267
11.50833,1272
11.51667,1278
11.52500,1283
11.53333,1288
11.54167,1293
11.55000,1298
11.55833,1302
11.56667,1306
11.57500,1310
11.58333,1314
11.59167,1318
11.60000,1321
11.60833,1324
11.61667,1327
11.62500,1331
11.63333,1334
11.64167,1337
11.65000,1339
11.65833,1342
11.66667,1344
11.67500,1347
11.68333,1349
11.69167,1351
11.70000,1353
11.70833,1355
11.71667,1358
11.72500,1360
11.73333,1361
11.74167,1363
11.75000,1364
11.75833,1366
11.76667,1368
11.77500,1370
11.78333,1373
11.79167,1374
11.80000,1376
11.80833,1378
11.81667,1380
11.82500,1382
11.83333,1384
11.84167,1386
11.85000,1388
11.85833,1389
11.86667,1391
11.87500,1392
11.88333,1393
11.89167,1394
11.90000,1395
11.90833,1396
11.91667,1397
11.92500,1397
11.93333,1399
11.94167,1399
11.95000,1400
11.95833,1401
11.96667,1402
11.97500,1403
11.98333,1404
11.99167,1405
12.00000,1405
12.00833,1406
12.01667,1406
12.02500,1406
12.03333,1406
12.04167,1407
12.05000,1407
12.05833,1408
12.06667,1408
12.07500,1408
12.08333,1409
12.09167,1409
12.10000,1409
12.10833,1409
12.11667,1409
12.12500,1409
12.13333,1409
12.14167,1409
12.15000,1409
12.15833,1408
12.16667,1408
12.17500,1408
12.18333,1408
12.19167,1408
12.20000,1409
12.20833,1409
12.21667,1409
12.22500,1409
12.23333,1409
12.24167,1409
12.25000,1409
12.25833,1409
12.26667,1409
12.27500,1409
12.28333,1409
12.29167,1409
12.30000,1410
12.30833,1410
12.31667,1410
12.32500,1410
12.33333,1411
12.34167,1411
12.35000,1411
12.35833,1411
12.36667,1412
12.37500,1412
12.38333,1412
12.39167,1412
12.40000,1412
12.40833,1413
12.41667,1413
12.42500,1414
12.43333,1414
12.44167,1414
12.45000,1415
12.45833,1415
12.46667,1416
12.47500,1416
12.48333,1417
12.49167,1417
12.50000,1417
12.50833,1417
12.51667,1417
12.52500,1417
12.53333,1418
12.54167,1418
12.55000,1418
12.55833,1419
12.56667,1420
12.57500,1420
12.58333,1421
12.59167,1421
12.60000,1422
12.60833,1422
12.61667,1423
12.62500,1424
12.63333,1424
12.64167,1424
12.65000,1425
12.65833,1425
12.66667,1426
12.67500,1426
12.68333,1427
12.69167,1427
12.70000,1428
12.70833,1429
12.71667,1430
12.72500,1431
12.73333,1432
12.74167,1432
12.75000,1433
12.75833,1434
12.76667,1435
12.77500,1436
12.78333,1438
12.79167,1439
12.80000,1441
12.80833,1442
12.81667,1444
12.82500,1446
12.83333,1447
12.84167,1449
12.85000,1451
12.85833,1452
12.86667,1454
12.87500,1456
12.88333,1458
12.89167,1460
12.90000,1462
12.90833,1465
12.91667,1467
12.92500,1469
12.93333,1470
12.94167,1472
12.95000,1474
12.95833,1476
12.96667,1478
12.97500,1480
12.98333,1481
12.99167,1483
13.00000,1484
13.00833,1486
13.01667,1487
13.02500,1489
13.03333,1491
13.04167,1493
13.05000,1494
13.05833,1496
13.06667,1497
13.07500,1498
13.08333,1500
13.09167,1501
13.10000,1503
13.10833,1504
13.11667,1505
13.12500,1506
13.13333,1507
13.14167,1508
13.15000,1509
13.15833,1510
13.16667,1511
13.17500,1512
13.18333,1513
13.19167,1514
13.20000,1514
13.20833,1514
13.21667,1514
13.22500,1514
13.23333,1514
13.24167,1514
13.25000,1513
13.25833,1512
13.26667,1512
13.27500,1511
13.28333,1510
13.29167,1510
13.30000,1509
13.30833,1508
13.31667,1507
13.32500,1506
13.33333,1504
13.34167,1503
13.35000,1502
13.35833,1500
13.36667,1499
13.37500,1497
13.38333,1496
13.39167,1494
13.40000,1493
13.40833,1491
13.41667,1490
13.42500,1488
13.43333,1486
13.44167,1485
13.45000,1483
13.45833,1482
13.46667,1481
13.47500,1479
13.48333,1478
13.49167,1476
13.50000,1475
13.50833,1473
13.51667,1472
13.52500,1471
13.53333,1469
13.54167,1468
13.55000,1467
13.55833,1466
13.56667,1466
13.57500,1465
13.58333,1464
13.59167,1463
13.60000,1463
13.60833,1462
13.61667,1462
13.62500,1461
13.63333,1460
13.64167,1460
13.65000,1459
13.65833,1459
13.66667,1459
13.67500,1458
13.68333,1458
13.69167,1457
13.70000,1457
13.70833,1457
13.71667,1457
13.72500,1456
13.73333,1456
13.74167,1456
13.75000,1456
13.75833,1456
13.76667,1456
13.77500,1456
13.78333,1456
13.79167,1456
13.80000,1456
13.80833,1456
13.81667,1457
13.82500,1457
13.83333,1457
13.84167,1457
13.85000,1457
13.85833,1457
13.86667,1457
13.87500,1456
13.88333,1457
13.89167,1457
13.90000,1457
13.90833,1457
13.91667,1457
13.92500,1457
13.93333,1457
13.94167,1457
13.95000,1457
13.95833,1457
13.96667,1457
13.97500,1457
13.98333,1457
13.99167,1458
14.00000,1458
14.00833,1458
14.01667,1458
14.02500,1458
14.03333,1458
14.04167,1458
14.05000,1458
14.05833,1459
14.06667,1459
14.07500,1459
14.08333,1459
14.09167,1459
14.10000,1459
14.10833,1459
14.11667,1459
14.12500,1459
14.13333,1459
14.14167,1459
14.15000,1460
14.15833,1460
14.16667,1460
14.17500,1461
14.18333,1461
14.19167,1461
14.20000,1461
14.20833,1461
14.21667,1461
14.22500,1462
14.23333,1462
14.24167,1462
14.25000,1462
14.25833,1462
14.26667,1462
14.27500,1463
14.28333,1463
14.29167,1462
14.30000,1463
14.30833,1463
14.31667,1463
14.32500,1463
14.33333,1463
14.34167,1463
14.35000,1463
14.35833,1463
14.36667,1463
14.37500,1463
14.38333,1463
14.39167,1464
14.40000,1464
14.40833,1464
14.41667,1464
14.42500,1464
14.43333,1464
14.44167,1464
14.45000,1464
14.45833,1465
14.46667,1465
14.47500,1465
14.48333,1465
14.49167,1465
14.50000,1465
14.50833,1465
14.51667,1466
14.52500,1466
14.53333,1466
14.54167,1466
14.55000,1466
14.55833,1466
14.56667,1467
14.57500,1467
14.58333,1468
14.59167,1468
14.60000,1468
14.60833,1468
14.61667,1469
14.62500,1469
14.63333,1469
14.64167,1469
14.65000,1469
14.65833,1469
14.66667,1469
14.67500,1470
14.68333,1470
14.69167,1470
14.70000,1470
14.70833,1471
14.71667,1471
14.72500,1471
14.73333,1471
14.74167,1471
14.75000,1472
14.75833,1472
14.76667,1472
14.77500,1472
14.78333,1472
14.79167,1472
14.80000,1472
14.80833,1472
14.81667,1472
14.82500,1473
14.83333,1473
14.84167,1474
14.85000,1474
14.85833,1474
14.86667,1475
14.87500,1476
14.88333,1477
14.89167,1477
14.90000,1478
14.90833,1479
14.91667,1480
14.92500,1481
14.93333,1482
14.94167,1484
14.95000,1486
14.95833,1488
14.96667,1491
14.97500,1494
14.98333,1498
14.99167,1502
15.00000,1507
15.00833,1514
15.01667,1521
15.02500,1530
15.03333,1540
15.04167,1552
15.05000,1566
15.05833,1583
15.06667,1603
15.07500,1626
15.08333,1655
15.09167,1688
15.10000,1728
15.10833,1776
15.11667,1832
15.12500,1899
15.13333,1978
15.14167,2072
15.15000,2184
15.15833,2315
15.16667,2470
15.17500,2653
15.18333,2868
15.19167,3120
15.20000,3413
15.20833,3755
15.21667,4152
15.22500,4610
15.23333,5138
15.24167,5744
15.25000,6435
15.25833,7223
15.26667,8114
15.27500,9120
15.28333,10250
15.29167,11512
15.30000,12917
15.30833,14472
15.31667,16187
15.32500,18067
15.33333,20119
15.34167,22348
15.35000,24757
15.35833,27347
15.36667,30117
15.37500,33066
15.38333,36188
15.39167,39476
15.40000,42921
15.40833,46510
15.41667,50229
15.42500,54060
15.43333,57983
15.44167,61979
15.45000,66022
15.45833,70088
15.46667,74151
15.47500,78182
15.48333,82152
15.49167,86033
15.50000,89795
15.50833,93410
15.51667,96850
15.52500,100088
15.53333,103098
15.54167,105858
15.55000,108345
15.55833,110543
15.56667,112435
15.57500,114009
15.58333,115253
15.59167,116163
15.60000,116736
15.60833,116969
15.61667,116867
15.62500,116436
15.63333,115684
15.64167,114623
15.65000,113267
15.65833,111631
15.66667,109734
15.67500,107595
15.68333,105235
15.69167,102675
15.70000,99937
15.70833,97044
15.71667,94019
15.72500,90884
15.73333,87661
15.74167,84371
15.75000,81036
15.75833,77674
15.76667,74305
15.77500,70946
15.78333,67613
15.79167,64321
15.80000,61082
15.80833,57908
15.81667,54811
15.82500,51798
15.83333,48878
15.84167,46057
15.85000,43339
15.85833,40729
15.86667,38230
15.87500,35843
15.88333,33570
15.89167,31410
15.90000,29363
15.90833,27427
15.91667,25600
15.92500,23879
15.93333,22262
15.94167,20745
15.95000,19326
15.95833,17999
15.96667,16761
15.97500,15609
15.98333,14537
15.99167,13542
16.00000,12619
16.00833,11765
16.01667,10975
16.02500,10245
16.03333,9572
16.04167,8952
16.05000,8380
16.05833,7855
16.06667,7372
16.07500,6929
16.08333,6522
16.09167,6148
16.10000,5806
16.10833,5493
16.11667,5206
16.12500,4943
16.13333,4702
16.14167,4482
16.15000,4280
16.15833,4095
16.16667,3926
16.17500,3771
16.18333,3629
16.19167,3500
16.20000,3381
16.20833,3272
16.21667,3173
16.22500,3081
16.23333,2997
16.24167,2920
16.25000,2849
16.25833,2784
16.26667,2724
16.27500,2668
16.28333,2617
16.29167,2570
16.30000,2527
16.30833,2487
16.31667,2450
16.32500,2415
16.33333,2383
16.34167,2353
16.35000,2325
16.35833,2299
16.36667,2275
16.37500,2252
16.38333,2232
16.39167,2212
16.40000,2194
16.40833,2177
16.41667,2161
16.42500,2146
16.43333,2132
16.44167,2118
16.45000,2106
16.45833,2094
16.46667,2083
16.47500,2072
16.48333,2062
16.49167,2053
16.50000,2044
16.50833,2036
16.51667,2027
16.52500,2020
16.53333,2012
16.54167,2006
16.55000,1999
16.55833,1992
16.56667,1987
16.57500,1981
16.58333,1975
16.59167,1970
16.60000,1964
16.60833,1959
16.61667,1954
16.62500,1949
16.63333,1945
16.64167,1941
16.65000,1937
16.65833,1932
16.66667,1928
16.67500,1924
16.68333,1920
16.69167,1916
16.70000,1913
16.70833,1909
16.71667,1905
16.72500,1902
16.73333,1899
16.74167,1895
16.75000,1891
16.75833,1888
16.76667,1884
16.77500,1881
16.78333,1877
16.79167,1874
16.80000,1871
16.80833,1868
16.81667,1865
16.82500,1862
16.83333,1858
16.84167,1855
16.85000,1852
16.85833,1849
16.86667,1846
16.87500,1842
16.88333,1839
16.89167,1836
16.90000,1833
16.90833,1830
16.91667,1827
16.92500,1825
16.93333,1822
16.94167,1819
16.95000,1816
16.95833,1813
16.96667,1810
16.97500,1807
16.98333,1805
16.99167,1802
17.00000,1799
17.00833,1797
17.01667,1794
17.02500,1791
17.03333,1789
17.04167,1787
17.05000,1784
17.05833,1782
17.06667,1779
17.07500,1777
17.08333,1774
17.09167,1771
17.10000,1769
17.10833,1766
17.11667,1763
17.12500,1761
17.13333,1759
17.14167,1756
17.15000,1754
17.15833,1752
17.16667,1750
17.17500,1747
17.18333,1745
17.19167,1743
17.20000,1740
17.20833,1738
17.21667,1736
17.22500,1734
17.23333,1732
17.24167,1730
17.25000,1728
17.25833,1726
17.26667,1724
17.27500,1722
17.28333,1721
17.29167,1719
17.30000,1718
17.30833,1716
17.31667,1714
17.32500,1712
17.33333,1711
17.34167,1710
17.35000,1708
17.35833,1707
17.36667,1705
17.37500,1704
17.38333,1702
17.39167,1701
17.40000,1700
17.40833,1698
17.41667,1697
17.42500,1696
17.43333,1695
17.44167,1694
17.45000,1693
17.45833,1692
17.46667,1690
17.47500,1689
17.48333,1688
17.49167,1687
17.50000,1686
17.50833,1685
17.51667,1683
17.52500,1682
17.53333,1681
17.54167,1680
17.55000,1679
17.55833,1679
17.56667,1678
17.57500,1677
17.58333,1676
17.59167,1675
17.60000,1674
17.60833,1673
17.61667,1672
17.62500,1672
17.63333,1671
17.64167,1670
17.65000,1669
17.65833,1668
17.66667,1667
17.67500,1666
17.68333,1665
17.69167,1665
17.70000,1665
17.70833,1664
17.71667,1664
17.72500,1663
17.73333,1662
17.74167,1661
17.75000,1660
17.75833,1660
17.76667,1659
17.77500,1659
17.78333,1658
17.79167,1657
17.80000,1657
17.80833,1656
17.81667,1656
17.82500,1655
17.83333,1654
17.84167,1653
17.85000,1653
17.85833,1652
17.86667,1651
17.87500,1651
17.88333,1650
17.89167,1650
17.90000,1649
17.90833,1649
17.91667,1648
17.92500,1648
17.93333,1647
17.94167,1647
17.95000,1646
17.95833,1645
17.96667,1645
17.97500,1644
17.98333,1643
17.99167,1643
18.00000,1642
18.00833,1642
18.01667,1641
18.02500,1640
18.03333,1639
18.04167,1639
18.05000,1638
18.05833,1638
18.06667,1637
18.07500,1637
18.08333,1636
18.09167,1635
18.10000,1634
18.10833,1634
18.11667,1633
18.12500,1633
18.13333,1632
18.14167,1631
18.15000,1631
18.15833,1630
18.16667,1630
18.17500,1629
18.18333,1628
18.19167,1628
18.20000,1627
18.20833,1626
18.21667,1626
18.22500,1625
18.23333,1624
18.24167,1624
18.25000,1623
18.25833,1623
18.26667,1623
18.27500,1622
18.28333,1621
18.29167,1621
18.30000,1620
18.30833,1620
18.31667,1619
18.32500,1619
18.33333,1618
18.34167,1617
18.35000,1617
18.35833,1616
18.36667,1616
18.37500,1615
18.38333,1615
18.39167,1614
18.40000,1613
18.40833,1613
18.41667,1612
18.42500,1612
18.43333,1611
18.44167,1611
18.45000,1611
18.45833,1611
18.46667,1610
18.47500,1610
18.48333,1609
18.49167,1608
18.50000,1607
18.50833,1607
18.51667,1607
18.52500,1606
18.53333,1606
18.54167,1605
18.55000,1605
18.55833,1605
18.56667,1604
18.57500,1604
18.58333,1603
18.59167,1603
18.60000,1602
18.60833,1602
18.61667,1602
18.62500,1601
18.63333,1601
18.64167,1601
18.65000,1600
18.65833,1600
18.66667,1600
18.67500,1600
18.68333,1600
18.69167,1599
18.70000,1599
18.70833,1599
18.71667,1598
18.72500,1598
18.73333,1598
18.74167,1598
18.75000,1598
18.75833,1598
18.76667,1597
18.77500,1597
18.78333,1597
18.79167,1597
18.80000,1597
18.80833,1597
18.81667,1597
18.82500,1596
18.83333,1596
18.84167,1596
18.85000,1596
18.85833,1596
18.86667,1595
18.87500,1595
18.88333,1595
18.89167,1594
18.90000,1594
18.90833,1594
18.91667,1594
18.92500,1594
18.93333,1594
18.94167,1593
18.95000,1593
18.95833,1593
18.96667,1593
18.97500,1592
18.98333,1592
18.99167,1592
19.00000,1591
19.00833,1591
19.01667,1591
19.02500,1590
19.03333,1590
19.04167,1589
19.05000,1589
19.05833,1588
19.06667,1588
19.07500,1587
19.08333,1587
19.09167,1586
19.10000,1586
19.10833,1585
19.11667,1585
19.12500,1585
19.13333,1584
19.14167,1584
19.15000,1583
19.15833,1583
19.16667,1582
19.17500,1582
19.18333,1582
19.19167,1582
19.20000,1582
19.20833,1581
19.21667,1581
19.22500,1580
19.23333,1579
19.24167,1579
19.25000,1578
19.25833,1578
19.26667,1577
19.27500,1577
19.28333,1576
19.29167,1576
19.30000,1576
19.30833,1575
19.31667,1575
19.32500,1575
19.33333,1575
19.34167,1574
19.35000,1574
19.35833,1574
19.36667,1574
19.37500,1574
19.38333,1574
19.39167,1574
19.40000,1574
19.40833,1574
19.41667,1574
19.42500,1573
19.43333,1572
19.44167,1572
19.45000,1572
19.45833,1572
19.46667,1572
19.47500,1571
19.48333,1571
19.49167,1571
19.50000,1571
19.50833,1571
19.51667,1571
19.52500,1570
19.53333,1570
19.54167,1569
19.55000,1569
19.55833,1569
19.56667,1569
19.57500,1569
19.58333,1568
19.59167,1568
19.60000,1569
19.60833,1568
19.61667,1568
19.62500,1568
19.63333,1567
19.64167,1567
19.65000,1567
19.65833,1567
19.66667,1567
19.67500,1566
19.68333,1566
19.69167,1566
19.70000,1566
19.70833,1566
19.71667,1565
19.72500,1565
19.73333,1565
19.74167,1565
19.75000,1565
19.75833,1565
19.76667,1565
19.77500,1565
19.78333,1565
19.79167,1565
19.80000,1565
19.80833,1565
19.81667,1565
19.82500,1565
19.83333,1565
19.84167,1564
19.85000,1564
19.85833,1564
19.86667,1563
19.87500,1564
19.88333,1564
19.89167,1563
19.90000,1563
19.90833,1563
19.91667,1563
19.92500,1563
19.93333,1563
19.94167,1563
19.95000,1563
19.95833,1562
19.96667,1562
19.97500,1562
19.98333,1562
19.99167,1562
20.00000,1562
20.00833,1561
20.01667,1561
20.02500,1561
20.03333,1560
20.04167,1560
20.05000,1561
20.05833,1561
20.06667,1561
20.07500,1561
20.08333,1561
20.09167,1561
20.10000,1560
20.10833,1560
20.11667,1560
20.12500,1560
20.13333,1560
20.14167,1560
20.15000,1560
20.15833,1560
20.16667,1559
20.17500,1559
20.18333,1558
20.19167,1558
20.20000,1558
20.20833,1558
20.21667,1558
20.22500,1558
20.23333,1558
20.24167,1558
20.25000,1558
20.25833,1558
20.26667,1558
20.27500,1558
20.28333,1559
20.29167,1559
20.30000,1558
20.30833,1558
20.31667,1558
20.32500,1557
20.33333,1557
20.34167,1557
20.35000,1557
20.35833,1557
20.36667,1557
20.37500,1557
20.38333,1557
20.39167,1557
20.40000,1556
20.40833,1556
20.41667,1555
20.42500,1555
20.43333,1555
20.44167,1555
20.45000,1555
20.45833,1555
20.46667,1555
20.47500,1555
20.48333,1555
20.49167,1554
20.50000,1554
20.50833,1554
20.51667,1554
20.52500,1554
20.53333,1554
20.54167,1554
20.55000,1553
20.55833,1553
20.56667,1553
20.57500,1554
20.58333,1554
20.59167,1555
20.60000,1554
20.60833,1554
20.61667,1554
20.62500,1554
20.63333,1554
20.64167,1554
20.65000,1554
20.65833,1554
20.66667,1554
20.67500,1554
20.68333,1554
20.69167,1554
20.70000,1554
20.70833,1554
20.71667,1554
20.72500,1554
20.73333,1554
20.74167,1554
20.75000,1554
20.75833,1554
20.76667,1554
20.77500,1554
20.78333,1554
20.79167,1553
20.80000,1553
20.80833,1553
20.81667,1553
20.82500,1554
20.83333,1554
20.84167,1554
20.85000,1553
20.85833,1553
20.86667,1554
20.87500,1554
20.88333,1554
20.89167,1554
20.90000,1554
20.90833,1554
20.91667,1553
20.92500,1553
20.93333,1553
20.94167,1553
20.95000,1553
20.95833,1553
20.96667,1553
20.97500,1553
20.98333,1553
20.99167,1553
21.00000,1553
21.00833,1553
21.01667,1553
21.02500,1553
21.03333,1554
21.04167,1554
21.05000,1554
21.05833,1554
21.06667,1554
21.07500,1554
21.08333,1553
21.09167,1553
21.10000,1553
21.10833,1553
21.11667,1553
21.12500,1553
21.13333,1553
21.14167,1553
21.15000,1553
21.15833,1553
21.16667,1553
21.17500,1553
21.18333,1553
21.19167,1554
21.20000,1554
21.20833,1554
21.21667,1554
21.22500,1554
21.23333,1554
21.24167,1555
21.25000,1555
21.25833,1556
21.26667,1556
21.27500,1557
21.28333,1558
21.29167,1559
21.30000,1559
21.30833,1560
21.31667,1562
21.32500,1563
21.33333,1565
21.34167,1567
21.35000,1569
21.35833,1571
21.36667,1574
21.37500,1576
21.38333,1580
21.39167,1583
21.40000,1588
21.40833,1593
21.41667,1598
21.42500,1604
21.43333,1611
21.44167,1618
21.45000,1627
21.45833,1636
21.46667,1647
21.47500,1659
21.48333,1674
21.49167,1690
21.50000,1707
21.50833,1727
21.51667,1749
21.52500,1774
21.53333,1803
21.54167,1835
21.55000,1872
21.55833,1913
21.56667,1958
21.57500,2010
21.58333,2068
21.59167,2134
21.60000,2207
21.60833,2288
21.61667,2380
21.62500,2482
21.63333,2597
21.64167,2724
21.65000,2866
21.65833,3023
21.66667,3198
21.67500,3391
21.68333,3603
21.69167,3837
21.70000,4093
21.70833,4373
21.71667,4679
21.72500,5012
21.73333,5373
21.74167,5763
21.75000,6185
21.75833,6639
21.76667,7126
21.77500,7646
21.78333,8200
21.79167,8789
21.80000,9413
21.80833,10070
21.81667,10761
21.82500,11484
21.83333,12239
21.84167,13023
21.85000,13835
21.85833,14673
21.86667,15533
21.87500,16412
21.88333,17308
21.89167,18216
21.90000,19133
21.90833,20054
21.91667,20974
21.92500,21889
21.93333,22794
21.94167,23684
21.95000,24554
21.95833,25399
21.96667,26213
21.97500,26992
21.98333,27730
21.99167,28424
22.00000,29069
22.00833,29661
22.01667,30195
22.02500,30670
22.03333,31081
22.04167,31427
22.05000,31705
22.05833,31915
22.06667,32055
22.07500,32125
22.08333,32125
22.09167,32055
22.10000,31917
22.10833,31712
22.11667,31442
22.12500,31109
22.13333,30716
22.14167,30267
22.15000,29765
22.15833,29213
22.16667,28616
22.17500,27978
22.18333,27302
22.19167,26593
22.20000,25856
22.20833,25094
22.21667,24313
22.22500,23516
22.23333,22708
22.24167,21892
22.25000,21073
22.25833,20253
22.26667,19436
22.27500,18626
22.28333,17826
22.29167,17037
22.30000,16263
22.30833,15506
22.31667,14767
22.32500,14049
22.33333,13352
22.34167,12678
22.35000,12029
22.35833,11404
22.36667,10805
22.37500,10231
22.38333,9683
22.39167,9161
22.40000,8664
22.40833,8193
22.41667,7747
22.42500,7326
22.43333,6928
22.44167,6554
22.45000,6203
22.45833,5873
22.46667,5564
22.47500,5275
22.48333,5005
22.49167,4753
22.50000,4519
22.50833,4301
22.51667,4099
22.52500,3912
22.53333,3738
22.54167,3577
22.55000,3428
22.55833,3291
22.56667,3165
22.57500,3048
22.58333,2940
22.59167,2841
22.60000,2750
22.60833,2667
22.61667,2590
22.62500,2519
22.63333,2454
22.64167,2395
22.65000,2340
22.65833,2290
22.66667,2244
22.67500,2202
22.68333,2163
22.69167,2127
22.70000,2095
22.70833,2065
22.71667,2037
22.72500,2012
22.73333,1988
22.74167,1967
22.75000,1948
22.75833,1930
22.76667,1913
22.77500,1898
22.78333,1884
22.79167,1871
22.80000,1858
22.80833,1847
22.81667,1837
22.82500,1827
22.83333,1818
22.84167,1810
22.85000,1802
22.85833,1795
22.86667,1788
22.87500,1782
22.88333,1776
22.89167,1770
22.90000,1764
22.90833,1759
22.91667,1755
22.92500,1751
22.93333,1747
22.94167,1743
22.95000,1739
22.95833,1736
22.96667,1733
22.97500,1730
22.98333,1727
22.99167,1724
23.00000,1722
23.00833,1719
23.01667,1716
23.02500,1713
23.03333,1711
23.04167,1709
23.05000,1707
23.05833,1705
23.06667,1703
23.07500,1701
23.08333,1699
23.09167,1697
23.10000,1695
23.10833,1693
23.11667,1692
23.12500,1691
23.13333,1689
23.14167,1688
23.15000,1687
23.15833,1685
23.16667,1684
23.17500,1682
23.18333,1681
23.19167,1680
23.20000,1679
23.20833,1678
23.21667,1676
23.22500,1675
23.23333,1674
23.24167,1672
23.25000,1671
23.25833,1669
23.26667,1668
23.27500,1666
23.28333,1665
23.29167,1664
23.30000,1663
23.30833,1662
23.31667,1661
23.32500,1660
23.33333,1659
23.34167,1658
23.35000,1657
23.35833,1656
23.36667,1655
23.37500,1654
23.38333,1653
23.39167,1653
23.40000,1652
23.40833,1651
23.41667,1650
23.42500,1649
23.43333,1648
23.44167,1647
23.45000,1646
23.45833,1645
23.46667,1644
23.47500,1643
23.48333,1642
23.49167,1641
23.50000,1641
23.50833,1640
23.51667,1640
23.52500,1639
23.53333,1639
23.54167,1638
23.55000,1638
23.55833,1637
23.56667,1636
23.57500,1635
23.58333,1635
23.59167,1634
23.60000,1634
23.60833,1633
23.61667,1632
23.62500,1631
23.63333,1631
23.64167,1630
23.65000,1630
23.65833,1629
23.66667,1628
23.67500,1628
23.68333,1627
23.69167,1627
23.70000,1627
23.70833,1627
23.71667,1626
23.72500,1626
23.73333,1626
23.74167,1625
23.75000,1625
23.75833,1624
23.76667,1624
23.77500,1623
23.78333,1623
23.79167,1623
23.80000,1623
23.80833,1623
23.81667,1622
23.82500,1622
23.83333,1622
23.84167,1621
23.85000,1621
23.85833,1621
23.86667,1621
23.87500,1621
23.88333,1620
23.89167,1620
23.90000,1619
23.90833,1619
23.91667,1619
23.92500,1618
23.93333,1618
23.94167,1618
23.95000,1618
23.95833,1618
23.96667,1618
23.97500,1618
23.98333,1618
23.99167,1617
24.00000,1617
24.00833,1617
24.01667,1616
24.02500,1616
24.03333,1616
24.04167,1616
24.05000,1616
24.05833,1616
24.06667,1616
24.07500,1615
24.08333,1615
24.09167,1614
24.10000,1614
24.10833,1614
24.11667,1614
24.12500,1614
24.13333,1613
24.14167,1613
24.15000,1613
24.15833,1613
24.16667,1613
24.17500,1613
24.18333,1614
24.19167,1614
24.20000,1614
24.20833,1614
24.21667,1615
24.22500,1616
24.23333,1616
24.24167,1617
24.25000,1618
24.25833,1619
24.26667,1620
24.27500,1621
24.28333,1623
24.29167,1625
24.30000,1627
24.30833,1629
24.31667,1631
24.32500,1634
24.33333,1637
24.34167,1640
24.35000,1644
24.35833,1649
24.36667,1654
24.37500,1659
24.38333,1665
24.39167,1672
24.40000,1680
24.40833,1689
24.41667,1699
24.42500,1710
24.43333,1723
24.44167,1737
24.45000,1753
24.45833,1771
24.46667,1790
24.47500,1812
24.48333,1836
24.49167,1862
24.50000,1891
24.50833,1924
24.51667,1960
24.52500,2000
24.53333,2043
24.54167,2091
24.55000,2144
24.55833,2201
24.56667,2265
24.57500,2334
24.58333,2410
24.59167,2493
24.60000,2582
24.60833,2679
24.61667,2784
24.62500,2897
24.63333,3019
24.64167,3151
24.65000,3293
24.65833,3444
24.66667,3605
24.67500,3777
24.68333,3960
24.69167,4153
24.70000,4358
24.70833,4574
24.71667,4800
24.72500,5038
24.73333,5286
24.74167,5545
24.75000,5814
24.75833,6093
24.76667,6381
24.77500,6676
24.78333,6979
24.79167,7289
24.80000,7604
24.80833,7924
24.81667,8248
24.82500,8573
24.83333,8899
24.84167,9225
24.85000,9550
24.85833,9870
24.86667,10186
24.87500,10495
24.88333,10796
24.89167,11088
24.90000,11369
24.90833,11638
24.91667,11894
24.92500,12134
24.93333,12358
24.94167,12564
24.95000,12751
24.95833,12918
24.96667,13066
24.97500,13192
24.98333,13296
24.99167,13379
25.00000,13439
25.00833,13476
25.01667,13490
25.02500,13481
25.03333,13449
25.04167,13395
25.05000,13320
25.05833,13223
25.06667,13107
25.07500,12971
25.08333,12816
25.09167,12643
25.10000,12453
25.10833,12248
25.11667,12028
25.12500,11795
25.13333,11550
25.14167,11295
25.15000,11031
25.15833,10759
25.16667,10480
25.17500,10195
25.18333,9906
25.19167,9613
25.20000,9319
25.20833,9024
25.21667,8729
25.22500,8435
25.23333,8144
25.24167,7856
25.25000,7571
25.25833,7292
25.26667,7018
25.27500,6749
25.28333,6488
25.29167,6233
25.30000,5986
25.30833,5746
25.31667,5515
25.32500,5292
25.33333,5077
25.34167,4871
25.35000,4673
25.35833,4485
25.36667,4305
25.37500,4133
25.38333,3970
25.39167,3816
25.40000,3669
25.40833,3530
25.41667,3399
25.42500,3275
25.43333,3158
25.44167,3049
25.45000,2947
25.45833,2851
25.46667,2761
25.47500,2678
25.48333,2599
25.49167,2527
25.50000,2458
25.50833,2395
25.51667,2337
25.52500,2283
25.53333,2232
25.54167,2186
25.55000,2144
25.55833,2104
25.56667,2068
25.57500,2034
25.58333,2003
25.59167,1974
25.60000,1948
25.60833,1923
25.61667,1900
25.62500,1879
25.63333,1860
25.64167,1843
25.65000,1827
25.65833,1812
25.66667,1799
25.67500,1787
25.68333,1775
25.69167,1765
25.70000,1755
25.70833,1747
25.71667,1739
25.72500,1732
25.73333,1725
25.74167,1718
25.75000,1712
25.75833,1706
25.76667,1701
25.77500,1697
25.78333,1692
25.79167,1688
25.80000,1684
25.80833,1681
25.81667,1678
25.82500,1675
25.83333,1672
25.84167,1670
25.85000,1667
25.85833,1665
25.86667,1663
25.87500,1662
25.88333,1660
25.89167,1658
25.90000,1657
25.90833,1655
25.91667,1653
25.92500,1652
25.93333,1650
25.94167,1649
25.95000,1647
25.95833,1646
25.96667,1645
25.97500,1644
25.98333,1643
25.99167,1642
26.00000,1641
26.00833,1640
26.01667,1640
26.02500,1639
26.03333,1639
26.04167,1638
26.05000,1638
26.05833,1637
26.06667,1636
26.07500,1635
26.08333,1634
26.09167,1633
26.10000,1632
26.10833,1631
26.11667,1631
26.12500,1630
26.13333,1630
26.14167,1629
26.15000,1628
26.15833,1627
26.16667,1626
26.17500,1625
26.18333,1624
26.19167,1623
26.20000,1623
26.20833,1622
26.21667,1622
26.22500,1621
26.23333,1621
26.24167,1621
26.25000,1620
26.25833,1620
26.26667,1620
26.27500,1620
26.28333,1620
26.29167,1619
26.30000,1619
26.30833,1618
26.31667,1618
26.32500,1617
26.33333,1617
26.34167,1616
26.35000,1616
26.35833,1615
26.36667,1615
26.37500,1615
26.38333,1615
26.39167,1614
26.40000,1613
26.40833,1613
26.41667,1612
26.42500,1612
26.43333,1612
26.44167,1612
26.45000,1612
26.45833,1612
26.46667,1611
26.47500,1611
26.48333,1611
26.49167,1611
26.50000,1611
26.50833,1610
26.51667,1610
26.52500,1611
26.53333,1611
26.54167,1611
26.55000,1611
26.55833,1611
26.56667,1611
26.57500,1611
26.58333,1611
26.59167,1610
26.60000,1610
26.60833,1609
26.61667,1609
26.62500,1609
26.63333,1609
26.64167,1609
26.65000,1609
26.65833,1609
26.66667,1609
26.67500,1609
26.68333,1609
26.69167,1609
26.70000,1609
26.70833,1609
26.71667,1609
26.72500,1609
26.73333,1609
26.74167,1609
26.75000,1609
26.75833,1608
26.76667,1608
26.77500,1608
26.78333,1607
26.79167,1607
26.80000,1608
26.80833,1608
26.81667,1608
26.82500,1608
26.83333,1608
26.84167,1607
26.85000,1607
26.85833,1607
26.86667,1607
26.87500,1607
26.88333,1607
26.89167,1606
26.90000,1606
26.90833,1605
26.91667,1605
26.92500,1604
26.93333,1604
26.94167,1604
26.95000,1604
26.95833,1603
26.96667,1603
26.97500,1603
26.98333,1603
26.99167,1603
27.00000,1602
27.00833,1602
27.01667,1602
27.02500,1602
27.03333,1602
27.04167,1601
27.05000,1601
27.05833,1601
27.06667,1601
27.07500,1601
27.08333,1601
27.09167,1600
27.10000,1600
27.10833,1599
27.11667,1599
27.12500,1599
27.13333,1599
27.14167,1598
27.15000,1598
27.15833,1598
27.16667,1598
27.17500,1597
27.18333,1597
27.19167,1597
27.20000,1596
27.20833,1596
27.21667,1595
27.22500,1595
27.23333,1595
27.24167,1595
27.25000,1595
27.25833,1595
27.26667,1595
27.27500,1595
27.28333,1595
27.29167,1594
27.30000,1594
27.30833,1594
27.31667,1594
27.32500,1593
27.33333,1593
27.34167,1593
27.35000,1593
27.35833,1594
27.36667,1594
27.37500,1593
27.38333,1593
27.39167,1593
27.40000,1593
27.40833,1593
27.41667,1593
27.42500,1593
27.43333,1593
27.44167,1593
27.45000,1592
27.45833,1592
27.46667,1592
27.47500,1592
27.48333,1592
27.49167,1591
27.50000,1591
27.50833,1591
27.51667,1591
27.52500,1591
27.53333,1591
27.54167,1591
27.55000,1591
27.55833,1591
27.56667,1591
27.57500,1591
27.58333,1591
27.59167,1591
27.60000,1590
27.60833,1590
27.61667,1591
27.62500,1591
27.63333,1591
27.64167,1591
27.65000,1591
27.65833,1591
27.66667,1591
27.67500,1590
27.68333,1590
27.69167,1590
27.70000,1590
27.70833,1590
27.71667,1590
27.72500,1590
27.73333,1590
27.74167,1590
27.75000,1590
27.75833,1590
27.76667,1589
27.77500,1589
27.78333,1589
27.79167,1589
27.80000,1589
27.80833,1589
27.81667,1589
27.82500,1589
27.83333,1588
27.84167,1588
27.85000,1588
27.85833,1587
27.86667,1587
27.87500,1587
27.88333,1587
27.89167,1586
27.90000,1586
27.90833,1585
27.91667,1585
27.92500,1584
27.93333,1583
27.94167,1583
27.95000,1582
27.95833,1581
27.96667,1580
27.97500,1579
27.98333,1578
27.99167,1577
28.00000,1576
28.00833,1575
28.01667,1574
28.02500,1572
28.03333,1571
28.04167,1570
28.05000,1568
28.05833,1567
28.06667,1565
28.07500,1563
28.08333,1561
28.09167,1559
28.10000,1557
28.10833,1555
28.11667,1553
28.12500,1551
28.13333,1549
28.14167,1547
28.15000,1544
28.15833,1542
28.16667,1539
28.17500,1537
28.18333,1534
28.19167,1531
28.20000,1528
28.20833,1525
28.21667,1522
28.22500,1519
28.23333,1516
28.24167,1513
28.25000,1510
28.25833,1506
28.26667,1503
28.27500,1500
28.28333,1497
28.29167,1494
28.30000,1491
28.30833,1488
28.31667,1485
28.32500,1482
28.33333,1479
28.34167,1476
28.35000,1473
28.35833,1470
28.36667,1467
28.37500,1464
28.38333,1461
28.39167,1459
28.40000,1456
28.40833,1454
28.41667,1452
28.42500,1451
28.43333,1449
28.44167,1447
28.45000,1445
28.45833,1444
28.46667,1442
28.47500,1441
28.48333,1440
28.49167,1439
28.50000,1439
28.50833,1438
28.51667,1438
28.52500,1439
28.53333,1439
28.54167,1439
28.55000,1439
28.55833,1440
28.56667,1440
28.57500,1441
28.58333,1442
28.59167,1443
28.60000,1445
28.60833,1447
28.61667,1448
28.62500,1450
28.63333,1452
28.64167,1454
28.65000,1456
28.65833,1457
28.66667,1459
28.67500,1461
28.68333,1463
28.69167,1466
28.70000,1468
28.70833,1471
28.71667,1474
28.72500,1477
28.73333,1479
28.74167,1482
28.75000,1485
28.75833,1488
28.76667,1491
28.77500,1494
28.78333,1496
28.79167,1499
28.80000,1501
28.80833,1504
28.81667,1506
28.82500,1509
28.83333,1511
28.84167,1514
28.85000,1517
28.85833,1519
28.86667,1522
28.87500,1524
28.88333,1526
28.89167,1528
28.90000,1531
28.90833,1533
28.91667,1535
28.92500,1536
28.93333,1538
28.94167,1540
28.95000,1542
28.95833,1544
28.96667,1546
28.97500,1547
28.98333,1549
28.99167,1550
29.00000,1551
29.00833,1552
29.01667,1554
29.02500,1555
29.03333,1557
29.04167,1558
29.05000,1559
29.05833,1559
29.06667,1560
29.07500,1561
29.08333,1562
29.09167,1563
29.10000,1564
29.10833,1564
29.11667,1565
29.12500,1565
29.13333,1566
29.14167,1567
29.15000,1568
29.15833,1569
29.16667,1570
29.17500,1570
29.18333,1571
29.19167,1571
29.20000,1571
29.20833,1572
29.21667,1572
29.22500,1572
29.23333,1573
29.24167,1573
29.25000,1574
29.25833,1574
29.26667,1574
29.27500,1574
29.28333,1574
29.29167,1574
29.30000,1575
29.30833,1575
29.31667,1575
29.32500,1576
29.33333,1576
29.34167,1576
29.35000,1577
29.35833,1577
29.36667,1577
29.37500,1577
29.38333,1577
29.39167,1577
29.40000,1577
29.40833,1577
29.41667,1578
29.42500,1578
29.43333,1578
29.44167,1578
29.45000,1578
29.45833,1578
29.46667,1577
29.47500,1577
29.48333,1577
29.49167,1577
29.50000,1577
29.50833,1576
29.51667,1576
29.52500,1576
29.53333,1576
29.54167,1575
29.55000,1575
29.55833,1575
29.56667,1575
29.57500,1576
29.58333,1576
29.59167,1576
29.60000,1575
29.60833,1574
29.61667,1574
29.62500,1574
29.63333,1574
29.64167,1574
29.65000,1574
29.65833,1573
29.66667,1573
29.67500,1573
29.68333,1573
29.69167,1572
29.70000,1572
29.70833,1572
29.71667,1571
29.72500,1571
29.73333,1571
29.74167,1570
29.75000,1569
29.75833,1569
29.76667,1568
29.77500,1567
29.78333,1567
29.79167,1566
29.80000,1565
29.80833,1565
29.81667,1564
29.82500,1563
29.83333,1563
29.84167,1562
29.85000,1561
29.85833,1560
29.86667,1559
29.87500,1558
29.88333,1557
29.89167,1556
29.90000,1555
29.90833,1555
29.91667,1554
29.92500,1553
29.93333,1552
29.94167,1552
29.95000,1551
29.95833,1550
29.96667,1549
29.97500,1548
29.98333,1547
29.99167,1546
30.00000,1545
30.00833,1544
30.01667,1543
30.02500,1542
30.03333,1540
30.04167,1539
30.05000,1537
30.05833,1536
30.06667,1535
30.07500,1535
30.08333,1534
30.09167,1533
30.10000,1532
30.10833,1532
30.11667,1531
30.12500,1530
30.13333,1529
30.14167,1528
30.15000,1527
30.15833,1527
30.16667,1526
30.17500,1526
30.18333,1525
30.19167,1524
30.20000,1523
30.20833,1523
30.21667,1523
30.22500,1523
30.23333,1523
30.24167,1523
30.25000,1522
30.25833,1522
30.26667,1521
30.27500,1521
30.28333,1521
30.29167,1521
30.30000,1522
30.30833,1522
30.31667,1522
30.32500,1522
30.33333,1522
30.34167,1523
30.35000,1523
30.35833,1524
30.36667,1525
30.37500,1526
30.38333,1526
30.39167,1527
30.40000,1528
30.40833,1528
30.41667,1529
30.42500,1530
30.43333,1530
30.44167,1531
30.45000,1532
30.45833,1533
30.46667,1534
30.47500,1534
30.48333,1535
30.49167,1536
30.50000,1537
30.50833,1538
30.51667,1539
30.52500,1541
30.53333,1542
30.54167,1543
30.55000,1544
30.55833,1545
30.56667,1546
30.57500,1547
30.58333,1548
30.59167,1549
30.60000,1550
30.60833,1551
30.61667,1552
30.62500,1552
30.63333,1553
30.64167,1553
30.65000,1554
30.65833,1555
30.66667,1556
30.67500,1557
30.68333,1558
30.69167,1559
30.70000,1560
30.70833,1561
30.71667,1562
30.72500,1562
30.73333,1563
30.74167,1564
30.75000,1564
30.75833,1565
30.76667,1566
30.77500,1567
30.78333,1567
30.79167,1568
30.80000,1568
30.80833,1568
30.81667,1569
30.82500,1569
30.83333,1569
30.84167,1569
30.85000,1570
30.85833,1570
30.86667,1571
30.87500,1571
30.88333,1571
30.89167,1571
30.90000,1572
30.90833,1572
30.91667,1573
30.92500,1573
30.93333,1574
30.94167,1574
30.95000,1574
30.95833,1574
30.96667,1574
30.97500,1574
30.98333,1574
30.99167,1574
31.00000,1574
31.00833,1574
31.01667,1574
31.02500,1575
31.03333,1575
31.04167,1575
31.05000,1575
31.05833,1576
31.06667,1576
31.07500,1576
31.08333,1576
31.09167,1576
31.10000,1576
31.10833,1576
31.11667,1577
31.12500,1577
31.13333,1577
31.14167,1577
31.15000,1577
31.15833,1577
31.16667,1576
31.17500,1576
31.18333,1576
31.19167,1577
31.20000,1576
31.20833,1576
31.21667,1576
31.22500,1576
31.23333,1576
31.24167,1577
31.25000,1577
31.25833,1577
31.26667,1577
31.27500,1577
31.28333,1576
31.29167,1576
31.30000,1576
31.30833,1576
31.31667,1576
31.32500,1577
31.33333,1577
31.34167,1578
31.35000,1578
31.35833,1578
31.36667,1578
31.37500,1578
31.38333,1578
31.39167,1578
31.40000,1578
31.40833,1578
31.41667,1578
31.42500,1578
31.43333,1578
31.44167,1578
31.45000,1578
31.45833,1578
31.46667,1578
31.47500,1578
31.48333,1578
31.49167,1578
31.50000,1578
31.50833,1578
31.51667,1579
31.52500,1579
31.53333,1580
31.54167,1580
31.55000,1580
31.55833,1580
31.56667,1580
31.57500,1580
31.58333,1580
31.59167,1580
31.60000,1581
31.60833,1581
31.61667,1580
31.62500,1581
31.63333,1581
31.64167,1581
31.65000,1581
31.65833,1581
31.66667,1581
31.67500,1581
31.68333,1581
31.69167,1581
31.70000,1581
31.70833,1581
31.71667,1581
31.72500,1581
31.73333,1581
31.74167,1581
31.75000,1581
31.75833,1581
31.76667,1581
31.77500,1581
31.78333,1581
31.79167,1581
31.80000,1581
31.80833,1581
31.81667,1582
31.82500,1582
31.83333,1582
31.84167,1582
31.85000,1582
31.85833,1582
31.86667,1582
31.87500,1582
31.88333,1581
31.89167,1581
31.90000,1582
31.90833,1582
31.91667,1582
31.92500,1582
31.93333,1582
31.94167,1583
31.95000,1582
31.95833,1582
31.96667,1582
31.97500,1582
31.98333,1582
31.99167,1582
32.00000,1582
32.00833,1582
32.01667,1583
32.02500,1583
32.03333,1583
32.04167,1584
32.05000,1584
32.05833,1584
32.06667,1583
32.07500,1583
32.08333,1583
32.09167,1583
32.10000,1583
32.10833,1583
32.11667,1583
32.12500,1583
32.13333,1582
32.14167,1582
32.15000,1583
32.15833,1583
32.16667,1583
32.17500,1583
32.18333,1583
32.19167,1583
32.20000,1583
32.20833,1583
32.21667,1583
32.22500,1583
32.23333,1584
32.24167,1584
32.25000,1584
32.25833,1584
32.26667,1584
32.27500,1584
32.28333,1584
32.29167,1584
32.30000,1584
32.30833,1584
32.31667,1584
32.32500,1584
32.33333,1584
32.34167,1585
32.35000,1585
32.35833,1585
32.36667,1585
32.37500,1585
32.38333,1584
32.39167,1584
32.40000,1584
32.40833,1584
32.41667,1583
32.42500,1583
32.43333,1583
32.44167,1583
32.45000,1583
32.45833,1583
32.46667,1583
32.47500,1583
32.48333,1583
32.49167,1583
32.50000,1583
32.50833,1584
32.51667,1584
32.52500,1584
32.53333,1584
32.54167,1584
32.55000,1583
32.55833,1583
32.56667,1583
32.57500,1584
32.58333,1584
32.59167,1584
32.60000,1584
32.60833,1584
32.61667,1584
32.62500,1584
32.63333,1584
32.64167,1584
32.65000,1584
32.65833,1584
32.66667,1584
32.67500,1584
32.68333,1584
32.69167,1584
32.70000,1585
32.70833,1585
32.71667,1585
32.72500,1585
32.73333,1585
32.74167,1584
32.75000,1584
32.75833,1584
32.76667,1584
32.77500,1584
32.78333,1584
32.79167,1584
32.80000,1584
32.80833,1584
32.81667,1584
32.82500,1585
32.83333,1585
32.84167,1585
32.85000,1585
32.85833,1585
32.86667,1585
32.87500,1585
32.88333,1585
32.89167,1585
32.90000,1585
32.90833,1585
32.91667,1584
32.92500,1584
32.93333,1584
32.94167,1584
32.95000,1584
32.95833,1584
32.96667,1584
32.97500,1584
32.98333,1584
32.99167,1584
33.00000,1584
33.00833,1584
33.01667,1584
33.02500,1584
33.03333,1583
33.04167,1583
33.05000,1583
33.05833,1583
33.06667,1583
33.07500,1583
33.08333,1584
33.09167,1584
33.10000,1584
33.10833,1584
33.11667,1584
33.12500,1584
33.13333,1584
33.14167,1584
33.15000,1583
33.15833,1583
33.16667,1583
33.17500,1583
33.18333,1583
33.19167,1583
33.20000,1583
33.20833,1583
33.21667,1583
33.22500,1583
33.23333,1583
33.24167,1583
33.25000,1584
33.25833,1584
33.26667,1585
33.27500,1585
33.28333,1585
33.29167,1585
33.30000,1585
33.30833,1586
33.31667,1586
33.32500,1585
33.33333,1585
33.34167,1585
33.35000,1585
33.35833,1585
33.36667,1585
33.37500,1585
33.38333,1585
33.39167,1585
33.40000,1585
33.40833,1585
33.41667,1584
33.42500,1584
33.43333,1585
33.44167,1585
33.45000,1585
33.45833,1585
33.46667,1585
33.47500,1584
33.48333,1584
33.49167,1585
33.50000,1585
33.50833,1584
33.51667,1584
33.52500,1585
33.53333,1585
33.54167,1584
33.55000,1584
33.55833,1585
33.56667,1585
33.57500,1585
33.58333,1586
33.59167,1586
33.60000,1586
33.60833,1586
33.61667,1586
33.62500,1586
33.63333,1586
33.64167,1586
33.65000,1586
33.65833,1585
33.66667,1585
33.67500,1585
33.68333,1586
33.69167,1586
33.70000,1586
33.70833,1586
33.71667,1586
33.72500,1586
33.73333,1586
33.74167,1586
33.75000,1586
33.75833,1586
33.76667,1586
33.77500,1586
33.78333,1586
33.79167,1586
33.80000,1586
33.80833,1586
33.81667,1586
33.82500,1586
33.83333,1587
33.84167,1587
33.85000,1587
33.85833,1587
33.86667,1587
33.87500,1587
33.88333,1587
33.89167,1587
33.90000,1587
33.90833,1586
33.91667,1586
33.92500,1586
33.93333,1586
33.94167,1586
33.95000,1586
33.95833,1586
33.96667,1587
33.97500,1587
33.98333,1587
33.99167,1587
34.00000,1587
34.00833,1587
34.01667,1587
34.02500,1587
34.03333,1587
34.04167,1587
34.05000,1587
34.05833,1587
34.06667,1587
34.07500,1587
34.08333,1587
34.09167,1587
34.10000,1587
34.10833,1588
34.11667,1588
34.12500,1588
34.13333,1588
34.14167,1588
34.15000,1588
34.15833,1588
34.16667,1588
34.17500,1588
34.18333,1587
34.19167,1587
34.20000,1587
34.20833,1587
34.21667,1587
34.22500,1587
34.23333,1587
34.24167,1587
34.25000,1587
34.25833,1587
34.26667,1587
34.27500,1587
34.28333,1587
34.29167,1588
34.30000,1588
34.30833,1587
34.31667,1587
34.32500,1588
34.33333,1588
34.34167,1588
34.35000,1587
34.35833,1587
34.36667,1587
34.37500,1587
34.38333,1587
34.39167,1587
34.40000,1587
34.40833,1587
34.41667,1587
34.42500,1587
34.43333,1587
34.44167,1587
34.45000,1587
34.45833,1587
34.46667,1588
34.47500,1588
34.48333,1588
34.49167,1588
34.50000,1588
34.50833,1588
34.51667,1588
34.52500,1588
34.53333,1588
34.54167,1587
34.55000,1587
34.55833,1587
34.56667,1587
34.57500,1587
34.58333,1588
34.59167,1588
34.60000,1588
34.60833,1588
34.61667,1587
34.62500,1587
34.63333,1588
34.64167,1588
34.65000,1588
34.65833,1588
34.66667,1588
34.67500,1588
34.68333,1588
34.69167,1588
34.70000,1588
34.70833,1588
34.71667,1588
34.72500,1588
34.73333,1588
34.74167,1588
34.75000,1588
34.75833,1588
34.76667,1588
34.77500,1588
34.78333,1588
34.79167,1588
34.80000,1588
34.80833,1588
34.81667,1588
34.82500,1588
34.83333,1588
34.84167,1588
34.85000,1588
34.85833,1588
34.86667,1589
34.87500,1588
34.88333,1588
34.89167,1588
34.90000,1588
34.90833,1588
34.91667,1588
34.92500,1588
34.93333,1588
34.94167,1587
34.95000,1587
34.95833,1587
34.96667,1587
34.97500,1587
34.98333,1588
34.99167,1588
35.00000,1588
35.00833,1588
35.01667,1588
35.02500,1588
35.03333,1588
35.04167,1588
35.05000,1588
35.05833,1588
35.06667,1588
35.07500,1588
35.08333,1588
35.09167,1588
35.10000,1588
35.10833,1588
35.11667,1588
35.12500,1588
35.13333,1589
35.14167,1588
35.15000,1589
35.15833,1589
35.16667,1589
35.17500,1589
35.18333,1588
35.19167,1588
35.20000,1588
35.20833,1588
35.21667,1588
35.22500,1589
35.23333,1589
35.24167,1589
35.25000,1589
35.25833,1589
35.26667,1590
35.27500,1590
35.28333,1589
35.29167,1589
35.30000,1589
35.30833,1589
35.31667,1589
35.32500,1589
35.33333,1589
35.34167,1589
35.35000,1589
35.35833,1589
35.36667,1590
35.37500,1590
35.38333,1590
35.39167,1590
35.40000,1590
35.40833,1589
35.41667,1589
35.42500,1589
35.43333,1589
35.44167,1589
35.45000,1589
35.45833,1589
35.46667,1589
35.47500,1589
35.48333,1589
35.49167,1589
35.50000,1590
35.50833,1590
35.51667,1590
35.52500,1590
35.53333,1590
35.54167,1590
35.55000,1590
35.55833,1590
35.56667,1590
35.57500,1590
35.58333,1590
35.59167,1590
35.60000,1590
35.60833,1590
35.61667,1590
35.62500,1590
35.63333,1590
35.64167,1590
35.65000,1590
35.65833,1590
35.66667,1590
35.67500,1591
35.68333,1591
35.69167,1591
35.70000,1591
35.70833,1591
35.71667,1591
35.72500,1590
35.73333,1590
35.74167,1590
35.75000,1590
35.75833,1590
35.76667,1591
35.77500,1591
35.78333,1591
35.79167,1591
35.80000,1591
35.80833,1591
35.81667,1591
35.82500,1591
35.83333,1591
35.84167,1591
35.85000,1591
35.85833,1591
35.86667,1591
35.87500,1591
35.88333,1591
35.89167,1591
35.90000,1591
35.90833,1591
35.91667,1591
35.92500,1591
35.93333,1591
35.94167,1590
35.95000,1590
35.95833,1590
35.96667,1590
35.97500,1590
35.98333,1590
35.99167,1590
36.00000,1590
36.00833,1590
36.01667,1590
36.02500,1590
36.03333,1590
36.04167,1590
36.05000,1590
36.05833,1590
36.06667,1591
36.07500,1591
36.08333,1590
36.09167,1590
36.10000,1590
36.10833,1590
36.11667,1589
36.12500,1589
36.13333,1589
36.14167,1589
36.15000,1590
36.15833,1590
36.16667,1589
36.17500,1589
36.18333,1589
36.19167,1589
36.20000,1589
36.20833,1589
36.21667,1589
36.22500,1588
36.23333,1588
36.24167,1588
36.25000,1588
36.25833,1588
36.26667,1588
36.27500,1588
36.28333,1588
36.29167,1588
36.30000,1589
36.30833,1588
36.31667,1589
36.32500,1589
36.33333,1589
36.34167,1589
36.35000,1589
36.35833,1589
36.36667,1589
36.37500,1589
36.38333,1589
36.39167,1588
36.40000,1588
36.40833,1588
36.41667,1588
36.42500,1588
36.43333,1588
36.44167,1588
36.45000,1588
36.45833,1587
36.46667,1587
36.47500,1588
36.48333,1588
36.49167,1588
36.50000,1588
36.50833,1588
36.51667,1588
36.52500,1588
36.53333,1588
36.54167,1588
36.55000,1588
36.55833,1588
36.56667,1588
36.57500,1588
36.58333,1588
36.59167,1588
36.60000,1588
36.60833,1588
36.61667,1588
36.62500,1587
36.63333,1587
36.64167,1587
36.65000,1587
36.65833,1588
36.66667,1588
36.67500,1588
36.68333,1588
36.69167,1588
36.70000,1588
36.70833,1588
36.71667,1588
36.72500,1587
36.73333,1588
36.74167,1588
36.75000,1588
36.75833,1588
36.76667,1588
36.77500,1589
36.78333,1589
36.79167,1589
36.80000,1589
36.80833,1589
36.81667,1589
36.82500,1589
36.83333,1589
36.84167,1589
36.85000,1589
36.85833,1590
36.86667,1590
36.87500,1590
36.88333,1590
36.89167,1590
36.90000,1590
36.90833,1590
36.91667,1590
36.92500,1590
36.93333,1590
36.94167,1590
36.95000,1590
36.95833,1590
36.96667,1591
36.97500,1591
36.98333,1591
36.99167,1591
37.00000,1592
37.00833,1592
37.01667,1592
37.02500,1592
37.03333,1592
37.04167,1592
37.05000,1592
37.05833,1592
37.06667,1592
37.07500,1592
37.08333,1592
37.09167,1592
37.10000,1592
37.10833,1592
37.11667,1592
37.12500,1592
37.13333,1592
37.14167,1592
37.15000,1592
37.15833,1592
37.16667,1592
37.17500,1592
37.18333,1592
37.19167,1592
37.20000,1592
37.20833,1592
37.21667,1592
37.22500,1592
37.23333,1592
37.24167,1592
37.25000,1592
37.25833,1592
37.26667,1592
37.27500,1592
37.28333,1593
37.29167,1593
37.30000,1593
37.30833,1593
37.31667,1593
37.32500,1592
37.33333,1592
37.34167,1592
37.35000,1592
37.35833,1591
37.36667,1591
37.37500,1592
37.38333,1592
37.39167,1591
37.40000,1591
37.40833,1591
37.41667,1591
37.42500,1591
37.43333,1591
37.44167,1591
37.45000,1592
37.45833,1592
37.46667,1592
37.47500,1592
37.48333,1592
37.49167,1592
37.50000,1592
37.50833,1592
37.51667,1592
37.52500,1592
37.53333,1592
37.54167,1593
37.55000,1593
37.55833,1593
37.56667,1593
37.57500,1593
37.58333,1593
37.59167,1593
37.60000,1593
37.60833,1592
37.61667,1592
37.62500,1592
37.63333,1592
37.64167,1592
37.65000,1593
37.65833,1592
37.66667,1592
37.67500,1592
37.68333,1592
37.69167,1592
37.70000,1592
37.70833,1592
37.71667,1592
37.72500,1592
37.73333,1592
37.74167,1592
37.75000,1592
37.75833,1592
37.76667,1592
37.77500,1592
37.78333,1592
37.79167,1592
37.80000,1592
37.80833,1592
37.81667,1592
37.82500,1592
37.83333,1592
37.84167,1592
37.85000,1592
37.85833,1592
37.86667,1592
37.87500,1592
37.88333,1592
37.89167,1592
37.90000,1592
37.90833,1592
37.91667,1592
37.92500,1592
37.93333,1592
37.94167,1592
37.95000,1592
37.95833,1592
37.96667,1592
37.97500,1592
37.98333,1592
37.99167,1592
38.00000,1592
38.00833,1592
38.01667,1592
38.02500,1593
38.03333,1593
38.04167,1593
38.05000,1593
38.05833,1593
38.06667,1593
38.07500,1593
38.08333,1593
38.09167,1593
38.10000,1592
38.10833,1592
38.11667,1592
38.12500,1592
38.13333,1592
38.14167,1592
38.15000,1592
38.15833,1592
38.16667,1592
38.17500,1592
38.18333,1593
38.19167,1593
38.20000,1593
38.20833,1593
38.21667,1592
38.22500,1592
38.23333,1593
38.24167,1593
38.25000,1593
38.25833,1593
38.26667,1593
38.27500,1593
38.28333,1593
38.29167,1593
38.30000,1593
38.30833,1593
38.31667,1593
38.32500,1593
38.33333,1593
38.34167,1593
38.35000,1594
38.35833,1594
38.36667,1595
38.37500,1595
38.38333,1595
38.39167,1595
38.40000,1595
38.40833,1595
38.41667,1595
38.42500,1595
38.43333,1595
38.44167,1595
38.45000,1595
38.45833,1595
38.46667,1595
38.47500,1595
38.48333,1595
38.49167,1595
38.50000,1595
38.50833,1595
38.51667,1595
38.52500,1595
38.53333,1595
38.54167,1595
38.55000,1595
38.55833,1595
38.56667,1595
38.57500,1595
38.58333,1595
38.59167,1595
38.60000,1595
38.60833,1595
38.61667,1595
38.62500,1595
38.63333,1595
38.64167,1596
38.65000,1596
38.65833,1596
38.66667,1596
38.67500,1596
38.68333,1596
38.69167,1596
38.70000,1596
38.70833,1596
38.71667,1595
38.72500,1596
38.73333,1596
38.74167,1596
38.75000,1597
38.75833,1597
38.76667,1597
38.77500,1597
38.78333,1597
38.79167,1597
38.80000,1596
38.80833,1596
38.81667,1595
38.82500,1595
38.83333,1594
38.84167,1594
38.85000,1595
38.85833,1595
38.86667,1595
38.87500,1595
38.88333,1595
38.89167,1595
38.90000,1595
38.90833,1595
38.91667,1595
38.92500,1595
38.93333,1595
38.94167,1595
38.95000,1595
38.95833,1595
38.96667,1596
38.97500,1596
38.98333,1596
38.99167,1596
39.00000,1596
39.00833,1596
39.01667,1596
39.02500,1595
39.03333,1595
39.04167,1595
39.05000,1595
39.05833,1595
39.06667,1595
39.07500,1595
39.08333,1595
39.09167,1595
39.10000,1595
39.10833,1595
39.11667,1595
39.12500,1596
39.13333,1596
39.14167,1596
39.15000,1596
39.15833,1596
39.16667,1596
39.17500,1595
39.18333,1595
39.19167,1595
39.20000,1595
39.20833,1595
39.21667,1595
39.22500,1595
39.23333,1595
39.24167,1595
39.25000,1595
39.25833,1595
39.26667,1595
39.27500,1594
39.28333,1594
39.29167,1595
39.30000,1595
39.30833,1594
39.31667,1594
39.32500,1594
39.33333,1594
39.34167,1594
39.35000,1594
39.35833,1594
39.36667,1594
39.37500,1594
39.38333,1593
39.39167,1594
39.40000,1594
39.40833,1594
39.41667,1594
39.42500,1594
39.43333,1594
39.44167,1594
39.45000,1595
39.45833,1595
39.46667,1594
39.47500,1594
39.48333,1594
39.49167,1594
39.50000,1595
39.50833,1595
39.51667,1595
39.52500,1595
39.53333,1595
39.54167,1595
39.55000,1595
39.55833,1595
39.56667,1595
39.57500,1595
39.58333,1594
39.59167,1594
39.60000,1594
39.60833,1595
39.61667,1595
39.62500,1595
39.63333,1595
39.64167,1594
39.65000,1594
39.65833,1594
39.66667,1594
39.67500,1594
39.68333,1594
39.69167,1594
39.70000,1594
39.70833,1594
39.71667,1594
39.72500,1594
39.73333,1594
39.74167,1594
39.75000,1594
39.75833,1594
39.76667,1595
39.77500,1595
39.78333,1595
39.79167,1595
39.80000,1595
39.80833,1595
39.81667,1595
39.82500,1595
39.83333,1595
39.84167,1595
39.85000,1595
39.85833,1594
39.86667,1595
39.87500,1595
39.88333,1595
39.89167,1595
39.90000,1595
39.90833,1595
39.91667,1595
39.92500,1595
39.93333,1595
39.94167,1595
39.95000,1596
39.95833,1596
39.96667,1596
39.97500,1596
39.98333,1596
39.99167,1596
40.00000,1596

[Fraction Collection Report]
# of Fractions,0
