[Header]
Application Name,LabSolutions
Version,5.97 SP1
Data File Name,C:\Users\cremerlab\Desktop\Richa\June 30th 2023 ECOR_yield_Mal_and_Fru_calibration_curves\June30th 2023_6302023_015_016.lcd
Output Date,7/1/2023
Output Time,5:23:44 AM

[File Information]
Type,Data File
Generated,7/1/2023 4:43:22 AM
Generated by,System Administrator
Modified,7/1/2023 5:23:44 AM
Modified by,System Administrator

[Sample Information]
Operator Name,System Administrator
Acquired,7/1/2023 4:43:43 AM
Sample Type,0:Unknown
Level,0
Sample Name,N-C-_230630_xyl_sor_glu_10mM_mal_5mM
Sample ID,015
ISTD Amount1,1
ISTD Amount2,1
ISTD Amount3,1
ISTD Amount4,1
ISTD Amount5,1
ISTD Amount6,1
ISTD Amount7,1
ISTD Amount8,1
ISTD Amount9,1
ISTD Amount10,1
ISTD Amount11,1
ISTD Amount12,1
ISTD Amount13,1
ISTD Amount14,1
ISTD Amount15,1
ISTD Amount16,1
ISTD Amount17,1
ISTD Amount18,1
ISTD Amount19,1
ISTD Amount20,1
ISTD Amount21,1
ISTD Amount22,1
ISTD Amount23,1
ISTD Amount24,1
ISTD Amount25,1
ISTD Amount26,1
ISTD Amount27,1
ISTD Amount28,1
ISTD Amount29,1
ISTD Amount30,1
ISTD Amount31,1
ISTD Amount32,1
Sample Amount,1
Dilution Factor,1
Vial#,15
Injection Volume,20

[Original Files]
Data File,C:\Users\cremerlab\Desktop\Richa\June 30th 2023 ECOR_yield_Mal_and_Fru_calibration_curves\June30th 2023_6302023_015_016.lcd
Method File,C:\Users\cremerlab\Desktop\Richa\organic_acids_excretion.lcm
Batch File,C:\Users\cremerlab\Desktop\Richa\June 30th 2023 ECOR_yield_Mal_and_Fru_calibration_curves\June30th 2023.lcb
Report Format File,c:\LabSolutions\System\DEFAULT.lsr

[File Description]


[Configuration]
Instrument Name,HPLC-PC-Instrument1
Instrument #,1
Line #,1
# of Detectors,2
Detector ID,Detector A,Detector B
Detector Name,Detector A,Detector B
# of Channels,1,1

[LC Chromatogram(Detector B-Ch1)]
Interval(msec),500
# of Points,4801
Start Time(min),0.000
End Time(min),40.000
Intensity Units,mV
Intensity Multiplier,0.001
R.Time (min),Intensity
0.00000,0
0.00833,0
0.01667,-0
0.02500,-0
0.03333,-1
0.04167,-1
0.05000,-0
0.05833,-0
0.06667,0
0.07500,0
0.08333,0
0.09167,0
0.10000,1
0.10833,1
0.11667,1
0.12500,1
0.13333,1
0.14167,1
0.15000,1
0.15833,0
0.16667,0
0.17500,0
0.18333,0
0.19167,0
0.20000,-0
0.20833,-0
0.21667,-1
0.22500,-1
0.23333,-1
0.24167,-1
0.25000,-1
0.25833,-0
0.26667,-0
0.27500,-0
0.28333,-0
0.29167,-0
0.30000,-0
0.30833,-0
0.31667,-0
0.32500,-0
0.33333,-0
0.34167,-0
0.35000,-0
0.35833,-0
0.36667,0
0.37500,0
0.38333,0
0.39167,-0
0.40000,-1
0.40833,-1
0.41667,-1
0.42500,-1
0.43333,-1
0.44167,-1
0.45000,-1
0.45833,-1
0.46667,-1
0.47500,-1
0.48333,-0
0.49167,-1
0.50000,-1
0.50833,-1
0.51667,-1
0.52500,-1
0.53333,-1
0.54167,-0
0.55000,-0
0.55833,-1
0.56667,-1
0.57500,-1
0.58333,-1
0.59167,-1
0.60000,-1
0.60833,-1
0.61667,-0
0.62500,-0
0.63333,-0
0.64167,0
0.65000,0
0.65833,0
0.66667,0
0.67500,0
0.68333,0
0.69167,-0
0.70000,-1
0.70833,-1
0.71667,-1
0.72500,-1
0.73333,-1
0.74167,-1
0.75000,-1
0.75833,-1
0.76667,-1
0.77500,-1
0.78333,-1
0.79167,-1
0.80000,-1
0.80833,-0
0.81667,-1
0.82500,-1
0.83333,-1
0.84167,-1
0.85000,-1
0.85833,-1
0.86667,-0
0.87500,-0
0.88333,-1
0.89167,-1
0.90000,-1
0.90833,-0
0.91667,-1
0.92500,-1
0.93333,-1
0.94167,-1
0.95000,-1
0.95833,-1
0.96667,-1
0.97500,-1
0.98333,-1
0.99167,-1
1.00000,-1
1.00833,-1
1.01667,-1
1.02500,-1
1.03333,-1
1.04167,-0
1.05000,-0
1.05833,-0
1.06667,-0
1.07500,-0
1.08333,-1
1.09167,-1
1.10000,-0
1.10833,0
1.11667,0
1.12500,0
1.13333,0
1.14167,0
1.15000,0
1.15833,0
1.16667,0
1.17500,0
1.18333,-0
1.19167,-0
1.20000,-0
1.20833,-0
1.21667,-0
1.22500,-0
1.23333,-0
1.24167,-0
1.25000,-1
1.25833,-1
1.26667,-0
1.27500,-1
1.28333,-1
1.29167,-1
1.30000,-1
1.30833,-1
1.31667,-1
1.32500,-1
1.33333,-0
1.34167,-0
1.35000,-0
1.35833,0
1.36667,-0
1.37500,-0
1.38333,-1
1.39167,-1
1.40000,-1
1.40833,-1
1.41667,-1
1.42500,-1
1.43333,-1
1.44167,-1
1.45000,-1
1.45833,-1
1.46667,-0
1.47500,0
1.48333,-0
1.49167,-0
1.50000,-1
1.50833,-1
1.51667,-1
1.52500,-0
1.53333,-1
1.54167,-0
1.55000,-0
1.55833,-0
1.56667,-0
1.57500,0
1.58333,0
1.59167,0
1.60000,-0
1.60833,-0
1.61667,-1
1.62500,-1
1.63333,-0
1.64167,-0
1.65000,0
1.65833,1
1.66667,0
1.67500,0
1.68333,0
1.69167,0
1.70000,-0
1.70833,-0
1.71667,-0
1.72500,-0
1.73333,-0
1.74167,-1
1.75000,-1
1.75833,-1
1.76667,-1
1.77500,-1
1.78333,-1
1.79167,-1
1.80000,-1
1.80833,-1
1.81667,-2
1.82500,-2
1.83333,-2
1.84167,-2
1.85000,-2
1.85833,-2
1.86667,-2
1.87500,-2
1.88333,-1
1.89167,-1
1.90000,-0
1.90833,-0
1.91667,-1
1.92500,-0
1.93333,-0
1.94167,-0
1.95000,-1
1.95833,-1
1.96667,-1
1.97500,-1
1.98333,-1
1.99167,-1
2.00000,-1
2.00833,-2
2.01667,-2
2.02500,-2
2.03333,-1
2.04167,-1
2.05000,-1
2.05833,-1
2.06667,-1
2.07500,-1
2.08333,-0
2.09167,-1
2.10000,-1
2.10833,-1
2.11667,-1
2.12500,-1
2.13333,-1
2.14167,-1
2.15000,-1
2.15833,-1
2.16667,-1
2.17500,-1
2.18333,-1
2.19167,-1
2.20000,-1
2.20833,-1
2.21667,-0
2.22500,-0
2.23333,-0
2.24167,-0
2.25000,-0
2.25833,-0
2.26667,-0
2.27500,-0
2.28333,-0
2.29167,0
2.30000,0
2.30833,-0
2.31667,-0
2.32500,-0
2.33333,-1
2.34167,-0
2.35000,-0
2.35833,-0
2.36667,-0
2.37500,0
2.38333,0
2.39167,-0
2.40000,-0
2.40833,-0
2.41667,-1
2.42500,-1
2.43333,-0
2.44167,0
2.45000,0
2.45833,1
2.46667,0
2.47500,0
2.48333,0
2.49167,1
2.50000,1
2.50833,1
2.51667,1
2.52500,0
2.53333,0
2.54167,-0
2.55000,-0
2.55833,-1
2.56667,-1
2.57500,-1
2.58333,-1
2.59167,-1
2.60000,-1
2.60833,-0
2.61667,-0
2.62500,-0
2.63333,-0
2.64167,-0
2.65000,-1
2.65833,-1
2.66667,-0
2.67500,-0
2.68333,-0
2.69167,-0
2.70000,-0
2.70833,0
2.71667,0
2.72500,0
2.73333,-0
2.74167,0
2.75000,-0
2.75833,-0
2.76667,-0
2.77500,-0
2.78333,-1
2.79167,-1
2.80000,-1
2.80833,-1
2.81667,-1
2.82500,-1
2.83333,-1
2.84167,-1
2.85000,-1
2.85833,-1
2.86667,-1
2.87500,-1
2.88333,-1
2.89167,-1
2.90000,-1
2.90833,-1
2.91667,-1
2.92500,-0
2.93333,-0
2.94167,-1
2.95000,-1
2.95833,-1
2.96667,-1
2.97500,-1
2.98333,-1
2.99167,-1
3.00000,-0
3.00833,-0
3.01667,-1
3.02500,-1
3.03333,-1
3.04167,-1
3.05000,-1
3.05833,-1
3.06667,-1
3.07500,-1
3.08333,-0
3.09167,-0
3.10000,-1
3.10833,-0
3.11667,-0
3.12500,-1
3.13333,-1
3.14167,-1
3.15000,-1
3.15833,-0
3.16667,-0
3.17500,-0
3.18333,-1
3.19167,-1
3.20000,-0
3.20833,-1
3.21667,-1
3.22500,-1
3.23333,-1
3.24167,-1
3.25000,-1
3.25833,-1
3.26667,-1
3.27500,-1
3.28333,-1
3.29167,-1
3.30000,-1
3.30833,-1
3.31667,-1
3.32500,-1
3.33333,-1
3.34167,-1
3.35000,-1
3.35833,-1
3.36667,-1
3.37500,-1
3.38333,-0
3.39167,-0
3.40000,0
3.40833,-0
3.41667,-0
3.42500,-0
3.43333,-0
3.44167,-0
3.45000,-0
3.45833,-0
3.46667,-0
3.47500,-0
3.48333,-1
3.49167,-1
3.50000,-1
3.50833,-1
3.51667,-1
3.52500,-1
3.53333,-1
3.54167,-1
3.55000,-1
3.55833,-1
3.56667,-1
3.57500,-1
3.58333,-1
3.59167,-2
3.60000,-2
3.60833,-2
3.61667,-2
3.62500,-2
3.63333,-2
3.64167,-2
3.65000,-2
3.65833,-2
3.66667,-2
3.67500,-1
3.68333,-1
3.69167,-2
3.70000,-2
3.70833,-2
3.71667,-2
3.72500,-2
3.73333,-2
3.74167,-2
3.75000,-2
3.75833,-2
3.76667,-2
3.77500,-2
3.78333,-2
3.79167,-2
3.80000,-2
3.80833,-1
3.81667,-1
3.82500,-1
3.83333,-1
3.84167,-1
3.85000,-1
3.85833,-1
3.86667,-1
3.87500,-1
3.88333,-1
3.89167,-1
3.90000,-1
3.90833,-1
3.91667,-1
3.92500,-2
3.93333,-2
3.94167,-1
3.95000,-2
3.95833,-2
3.96667,-2
3.97500,-2
3.98333,-2
3.99167,-2
4.00000,-2
4.00833,-2
4.01667,-2
4.02500,-2
4.03333,-1
4.04167,-1
4.05000,-1
4.05833,-0
4.06667,-0
4.07500,-0
4.08333,-0
4.09167,-1
4.10000,-1
4.10833,-2
4.11667,-2
4.12500,-2
4.13333,-2
4.14167,-2
4.15000,-2
4.15833,-2
4.16667,-2
4.17500,-2
4.18333,-2
4.19167,-2
4.20000,-2
4.20833,-2
4.21667,-2
4.22500,-2
4.23333,-1
4.24167,-1
4.25000,-1
4.25833,-1
4.26667,-0
4.27500,0
4.28333,-0
4.29167,-0
4.30000,-1
4.30833,-1
4.31667,-1
4.32500,-1
4.33333,-1
4.34167,-1
4.35000,-1
4.35833,-1
4.36667,-1
4.37500,-1
4.38333,-1
4.39167,-1
4.40000,-1
4.40833,-1
4.41667,-1
4.42500,-1
4.43333,-1
4.44167,-1
4.45000,-1
4.45833,-1
4.46667,-1
4.47500,-1
4.48333,-1
4.49167,-1
4.50000,-1
4.50833,-1
4.51667,-0
4.52500,-0
4.53333,-0
4.54167,-1
4.55000,-1
4.55833,-1
4.56667,-1
4.57500,-1
4.58333,-1
4.59167,-1
4.60000,-1
4.60833,-0
4.61667,-0
4.62500,-0
4.63333,-0
4.64167,-0
4.65000,-0
4.65833,-0
4.66667,-0
4.67500,-0
4.68333,-0
4.69167,-0
4.70000,-1
4.70833,-1
4.71667,-1
4.72500,-2
4.73333,-2
4.74167,-1
4.75000,-2
4.75833,-1
4.76667,-1
4.77500,-1
4.78333,-1
4.79167,-1
4.80000,-1
4.80833,-1
4.81667,-1
4.82500,-0
4.83333,0
4.84167,0
4.85000,0
4.85833,0
4.86667,0
4.87500,0
4.88333,-0
4.89167,-0
4.90000,-0
4.90833,-0
4.91667,-0
4.92500,-0
4.93333,-1
4.94167,-1
4.95000,-1
4.95833,-0
4.96667,-0
4.97500,-0
4.98333,-0
4.99167,-0
5.00000,-0
5.00833,-0
5.01667,-1
5.02500,-1
5.03333,-1
5.04167,-1
5.05000,-1
5.05833,-1
5.06667,-1
5.07500,-1
5.08333,-1
5.09167,-1
5.10000,-1
5.10833,-1
5.11667,-1
5.12500,-1
5.13333,-1
5.14167,-1
5.15000,-1
5.15833,-1
5.16667,-1
5.17500,-2
5.18333,-2
5.19167,-2
5.20000,-2
5.20833,-2
5.21667,-2
5.22500,-2
5.23333,-1
5.24167,-2
5.25000,-2
5.25833,-2
5.26667,-1
5.27500,-1
5.28333,-1
5.29167,-1
5.30000,-0
5.30833,-0
5.31667,-0
5.32500,-1
5.33333,-1
5.34167,-1
5.35000,-1
5.35833,-1
5.36667,-2
5.37500,-2
5.38333,-2
5.39167,-2
5.40000,-2
5.40833,-2
5.41667,-2
5.42500,-2
5.43333,-1
5.44167,-1
5.45000,-1
5.45833,-1
5.46667,-2
5.47500,-2
5.48333,-2
5.49167,-2
5.50000,-1
5.50833,-1
5.51667,-1
5.52500,-2
5.53333,-2
5.54167,-2
5.55000,-2
5.55833,-2
5.56667,-2
5.57500,-1
5.58333,-1
5.59167,-1
5.60000,-1
5.60833,-1
5.61667,-1
5.62500,-1
5.63333,-1
5.64167,-1
5.65000,-1
5.65833,-2
5.66667,-2
5.67500,-2
5.68333,-2
5.69167,-2
5.70000,-2
5.70833,-2
5.71667,-2
5.72500,-2
5.73333,-2
5.74167,-2
5.75000,-1
5.75833,-1
5.76667,-1
5.77500,-1
5.78333,-1
5.79167,-1
5.80000,-1
5.80833,-1
5.81667,-1
5.82500,-1
5.83333,-0
5.84167,-1
5.85000,-1
5.85833,-1
5.86667,-1
5.87500,-1
5.88333,-1
5.89167,-1
5.90000,-1
5.90833,-1
5.91667,-1
5.92500,-1
5.93333,-1
5.94167,-2
5.95000,-2
5.95833,-2
5.96667,-2
5.97500,-2
5.98333,-2
5.99167,-2
6.00000,-2
6.00833,-1
6.01667,-1
6.02500,-2
6.03333,-2
6.04167,-1
6.05000,-1
6.05833,-1
6.06667,-1
6.07500,-1
6.08333,-1
6.09167,-1
6.10000,-1
6.10833,-1
6.11667,-1
6.12500,-1
6.13333,-0
6.14167,-0
6.15000,-0
6.15833,-0
6.16667,-1
6.17500,-1
6.18333,-1
6.19167,-1
6.20000,-1
6.20833,-1
6.21667,-1
6.22500,-1
6.23333,-2
6.24167,-2
6.25000,-2
6.25833,-2
6.26667,-2
6.27500,-2
6.28333,-2
6.29167,-2
6.30000,-2
6.30833,-2
6.31667,-2
6.32500,-1
6.33333,-1
6.34167,-1
6.35000,-1
6.35833,-1
6.36667,-1
6.37500,-1
6.38333,-1
6.39167,-2
6.40000,-2
6.40833,-1
6.41667,-1
6.42500,-1
6.43333,-1
6.44167,-1
6.45000,-1
6.45833,-1
6.46667,-1
6.47500,-1
6.48333,-1
6.49167,-1
6.50000,-1
6.50833,-1
6.51667,-1
6.52500,-1
6.53333,-1
6.54167,-1
6.55000,-1
6.55833,-1
6.56667,-2
6.57500,-2
6.58333,-2
6.59167,-2
6.60000,-2
6.60833,-2
6.61667,-2
6.62500,-2
6.63333,-1
6.64167,-1
6.65000,-2
6.65833,-2
6.66667,-2
6.67500,-2
6.68333,-2
6.69167,-2
6.70000,-2
6.70833,-2
6.71667,-2
6.72500,-2
6.73333,-2
6.74167,-2
6.75000,-1
6.75833,-1
6.76667,-1
6.77500,-1
6.78333,-2
6.79167,-2
6.80000,-2
6.80833,-2
6.81667,-2
6.82500,-2
6.83333,-1
6.84167,-1
6.85000,-1
6.85833,-1
6.86667,-1
6.87500,-1
6.88333,-1
6.89167,-2
6.90000,-2
6.90833,-2
6.91667,-2
6.92500,-2
6.93333,-2
6.94167,-2
6.95000,-2
6.95833,-2
6.96667,-2
6.97500,-2
6.98333,-1
6.99167,-1
7.00000,-1
7.00833,-1
7.01667,-1
7.02500,-1
7.03333,-1
7.04167,-1
7.05000,-1
7.05833,-1
7.06667,-1
7.07500,-2
7.08333,-2
7.09167,-2
7.10000,-2
7.10833,-1
7.11667,-1
7.12500,-1
7.13333,-1
7.14167,-1
7.15000,-0
7.15833,-0
7.16667,0
7.17500,0
7.18333,-0
7.19167,-0
7.20000,-1
7.20833,-1
7.21667,-1
7.22500,-1
7.23333,-1
7.24167,-1
7.25000,-2
7.25833,-2
7.26667,-2
7.27500,-2
7.28333,-1
7.29167,-1
7.30000,-1
7.30833,-1
7.31667,-1
7.32500,-1
7.33333,-1
7.34167,-1
7.35000,-1
7.35833,-1
7.36667,-1
7.37500,-1
7.38333,-1
7.39167,-2
7.40000,-2
7.40833,-2
7.41667,-2
7.42500,-2
7.43333,-2
7.44167,-1
7.45000,-1
7.45833,-1
7.46667,-0
7.47500,-0
7.48333,0
7.49167,0
7.50000,0
7.50833,0
7.51667,0
7.52500,0
7.53333,0
7.54167,0
7.55000,-0
7.55833,-0
7.56667,-0
7.57500,-0
7.58333,-0
7.59167,-0
7.60000,-1
7.60833,-1
7.61667,-1
7.62500,-1
7.63333,-1
7.64167,-1
7.65000,-1
7.65833,-1
7.66667,-1
7.67500,-1
7.68333,-1
7.69167,-1
7.70000,-1
7.70833,-1
7.71667,-1
7.72500,-1
7.73333,-1
7.74167,-1
7.75000,-1
7.75833,-1
7.76667,-1
7.77500,-2
7.78333,-2
7.79167,-1
7.80000,-1
7.80833,-1
7.81667,-1
7.82500,-1
7.83333,-1
7.84167,-1
7.85000,-1
7.85833,-1
7.86667,-1
7.87500,-1
7.88333,-1
7.89167,-1
7.90000,-1
7.90833,-1
7.91667,-1
7.92500,-1
7.93333,-1
7.94167,-1
7.95000,-1
7.95833,-1
7.96667,-1
7.97500,-1
7.98333,-1
7.99167,-1
8.00000,-1
8.00833,-1
8.01667,-1
8.02500,-1
8.03333,-1
8.04167,-1
8.05000,-1
8.05833,-1
8.06667,-1
8.07500,-1
8.08333,-1
8.09167,-1
8.10000,-1
8.10833,-1
8.11667,-1
8.12500,-1
8.13333,-1
8.14167,-1
8.15000,-1
8.15833,-1
8.16667,-1
8.17500,-1
8.18333,-1
8.19167,-1
8.20000,-1
8.20833,-1
8.21667,-1
8.22500,-1
8.23333,-1
8.24167,-1
8.25000,-1
8.25833,-1
8.26667,-0
8.27500,-0
8.28333,0
8.29167,0
8.30000,-0
8.30833,-0
8.31667,-1
8.32500,-0
8.33333,-0
8.34167,-1
8.35000,-1
8.35833,-1
8.36667,-1
8.37500,-1
8.38333,-1
8.39167,-1
8.40000,-1
8.40833,-1
8.41667,-1
8.42500,-0
8.43333,-0
8.44167,0
8.45000,-0
8.45833,-0
8.46667,-0
8.47500,-0
8.48333,0
8.49167,0
8.50000,0
8.50833,0
8.51667,0
8.52500,0
8.53333,1
8.54167,1
8.55000,1
8.55833,1
8.56667,1
8.57500,0
8.58333,0
8.59167,0
8.60000,-0
8.60833,-0
8.61667,-1
8.62500,-1
8.63333,-0
8.64167,-0
8.65000,-0
8.65833,-0
8.66667,-0
8.67500,-0
8.68333,-1
8.69167,-1
8.70000,-2
8.70833,-2
8.71667,-2
8.72500,-2
8.73333,-2
8.74167,-2
8.75000,-1
8.75833,-1
8.76667,-1
8.77500,-1
8.78333,-1
8.79167,-1
8.80000,-1
8.80833,-1
8.81667,-1
8.82500,-1
8.83333,-1
8.84167,-1
8.85000,-1
8.85833,-1
8.86667,-1
8.87500,-1
8.88333,-1
8.89167,-1
8.90000,-0
8.90833,-0
8.91667,0
8.92500,-0
8.93333,-0
8.94167,-0
8.95000,-0
8.95833,0
8.96667,0
8.97500,0
8.98333,0
8.99167,0
9.00000,0
9.00833,0
9.01667,-0
9.02500,-0
9.03333,-0
9.04167,-0
9.05000,-1
9.05833,-1
9.06667,-1
9.07500,-1
9.08333,-1
9.09167,-0
9.10000,-0
9.10833,-0
9.11667,-0
9.12500,-0
9.13333,0
9.14167,0
9.15000,-0
9.15833,-0
9.16667,-0
9.17500,-0
9.18333,-0
9.19167,0
9.20000,-0
9.20833,-0
9.21667,-0
9.22500,0
9.23333,1
9.24167,1
9.25000,1
9.25833,1
9.26667,1
9.27500,1
9.28333,0
9.29167,0
9.30000,0
9.30833,0
9.31667,0
9.32500,1
9.33333,1
9.34167,1
9.35000,1
9.35833,1
9.36667,0
9.37500,0
9.38333,0
9.39167,0
9.40000,0
9.40833,1
9.41667,1
9.42500,0
9.43333,0
9.44167,0
9.45000,0
9.45833,-0
9.46667,-0
9.47500,-0
9.48333,-0
9.49167,-0
9.50000,0
9.50833,0
9.51667,0
9.52500,0
9.53333,0
9.54167,0
9.55000,0
9.55833,1
9.56667,1
9.57500,1
9.58333,1
9.59167,0
9.60000,1
9.60833,1
9.61667,0
9.62500,0
9.63333,-0
9.64167,-0
9.65000,0
9.65833,0
9.66667,1
9.67500,1
9.68333,1
9.69167,1
9.70000,1
9.70833,1
9.71667,1
9.72500,1
9.73333,1
9.74167,1
9.75000,2
9.75833,2
9.76667,2
9.77500,2
9.78333,1
9.79167,1
9.80000,0
9.80833,0
9.81667,0
9.82500,0
9.83333,1
9.84167,1
9.85000,1
9.85833,0
9.86667,0
9.87500,0
9.88333,0
9.89167,0
9.90000,0
9.90833,0
9.91667,0
9.92500,0
9.93333,0
9.94167,0
9.95000,1
9.95833,1
9.96667,1
9.97500,1
9.98333,0
9.99167,-0
10.00000,-0
10.00833,-1
10.01667,-0
10.02500,0
10.03333,0
10.04167,0
10.05000,0
10.05833,0
10.06667,1
10.07500,1
10.08333,1
10.09167,2
10.10000,2
10.10833,2
10.11667,2
10.12500,1
10.13333,1
10.14167,1
10.15000,1
10.15833,1
10.16667,2
10.17500,2
10.18333,2
10.19167,1
10.20000,1
10.20833,1
10.21667,2
10.22500,1
10.23333,2
10.24167,2
10.25000,2
10.25833,2
10.26667,3
10.27500,3
10.28333,3
10.29167,3
10.30000,2
10.30833,2
10.31667,2
10.32500,2
10.33333,1
10.34167,0
10.35000,-2
10.35833,-4
10.36667,-7
10.37500,-12
10.38333,-18
10.39167,-26
10.40000,-37
10.40833,-51
10.41667,-69
10.42500,-90
10.43333,-115
10.44167,-146
10.45000,-181
10.45833,-220
10.46667,-263
10.47500,-309
10.48333,-357
10.49167,-404
10.50000,-448
10.50833,-488
10.51667,-519
10.52500,-539
10.53333,-544
10.54167,-528
10.55000,-488
10.55833,-418
10.56667,-314
10.57500,-171
10.58333,17
10.59167,253
10.60000,544
10.60833,895
10.61667,1309
10.62500,1792
10.63333,2347
10.64167,2978
10.65000,3689
10.65833,4482
10.66667,5361
10.67500,6328
10.68333,7384
10.69167,8532
10.70000,9771
10.70833,11103
10.71667,12527
10.72500,14044
10.73333,15650
10.74167,17346
10.75000,19127
10.75833,20992
10.76667,22935
10.77500,24953
10.78333,27039
10.79167,29185
10.80000,31385
10.80833,33629
10.81667,35906
10.82500,38206
10.83333,40514
10.84167,42817
10.85000,45100
10.85833,47347
10.86667,49541
10.87500,51664
10.88333,53698
10.89167,55626
10.90000,57429
10.90833,59093
10.91667,60601
10.92500,61939
10.93333,63094
10.94167,64056
10.95000,64816
10.95833,65367
10.96667,65702
10.97500,65818
10.98333,65713
10.99167,65385
11.00000,64834
11.00833,64063
11.01667,63075
11.02500,61876
11.03333,60475
11.04167,58881
11.05000,57109
11.05833,55174
11.06667,53093
11.07500,50887
11.08333,48579
11.09167,46191
11.10000,43749
11.10833,41277
11.11667,38798
11.12500,36336
11.13333,33912
11.14167,31543
11.15000,29247
11.15833,27037
11.16667,24924
11.17500,22916
11.18333,21019
11.19167,19236
11.20000,17569
11.20833,16016
11.21667,14576
11.22500,13245
11.23333,12020
11.24167,10893
11.25000,9861
11.25833,8917
11.26667,8055
11.27500,7270
11.28333,6556
11.29167,5907
11.30000,5318
11.30833,4782
11.31667,4296
11.32500,3856
11.33333,3457
11.34167,3095
11.35000,2767
11.35833,2470
11.36667,2201
11.37500,1957
11.38333,1736
11.39167,1535
11.40000,1353
11.40833,1189
11.41667,1039
11.42500,903
11.43333,779
11.44167,667
11.45000,567
11.45833,475
11.46667,391
11.47500,315
11.48333,246
11.49167,183
11.50000,126
11.50833,75
11.51667,28
11.52500,-15
11.53333,-53
11.54167,-88
11.55000,-120
11.55833,-149
11.56667,-175
11.57500,-199
11.58333,-221
11.59167,-240
11.60000,-258
11.60833,-273
11.61667,-287
11.62500,-300
11.63333,-312
11.64167,-323
11.65000,-333
11.65833,-341
11.66667,-349
11.67500,-355
11.68333,-361
11.69167,-366
11.70000,-371
11.70833,-374
11.71667,-377
11.72500,-380
11.73333,-382
11.74167,-384
11.75000,-385
11.75833,-386
11.76667,-387
11.77500,-387
11.78333,-386
11.79167,-386
11.80000,-385
11.80833,-384
11.81667,-383
11.82500,-381
11.83333,-379
11.84167,-377
11.85000,-374
11.85833,-372
11.86667,-368
11.87500,-365
11.88333,-361
11.89167,-357
11.90000,-353
11.90833,-348
11.91667,-343
11.92500,-337
11.93333,-332
11.94167,-326
11.95000,-321
11.95833,-314
11.96667,-308
11.97500,-301
11.98333,-294
11.99167,-287
12.00000,-280
12.00833,-273
12.01667,-265
12.02500,-258
12.03333,-250
12.04167,-242
12.05000,-234
12.05833,-226
12.06667,-219
12.07500,-211
12.08333,-204
12.09167,-197
12.10000,-190
12.10833,-183
12.11667,-176
12.12500,-169
12.13333,-163
12.14167,-157
12.15000,-151
12.15833,-145
12.16667,-139
12.17500,-134
12.18333,-129
12.19167,-124
12.20000,-120
12.20833,-116
12.21667,-112
12.22500,-108
12.23333,-105
12.24167,-102
12.25000,-99
12.25833,-96
12.26667,-93
12.27500,-91
12.28333,-89
12.29167,-87
12.30000,-86
12.30833,-84
12.31667,-83
12.32500,-83
12.33333,-82
12.34167,-82
12.35000,-81
12.35833,-81
12.36667,-80
12.37500,-80
12.38333,-79
12.39167,-79
12.40000,-78
12.40833,-78
12.41667,-77
12.42500,-78
12.43333,-78
12.44167,-78
12.45000,-79
12.45833,-79
12.46667,-79
12.47500,-79
12.48333,-79
12.49167,-78
12.50000,-78
12.50833,-77
12.51667,-77
12.52500,-76
12.53333,-75
12.54167,-74
12.55000,-72
12.55833,-70
12.56667,-66
12.57500,-63
12.58333,-58
12.59167,-53
12.60000,-47
12.60833,-39
12.61667,-30
12.62500,-19
12.63333,-7
12.64167,7
12.65000,23
12.65833,43
12.66667,64
12.67500,89
12.68333,116
12.69167,147
12.70000,181
12.70833,218
12.71667,259
12.72500,304
12.73333,354
12.74167,407
12.75000,466
12.75833,528
12.76667,596
12.77500,668
12.78333,746
12.79167,830
12.80000,919
12.80833,1015
12.81667,1118
12.82500,1228
12.83333,1345
12.84167,1471
12.85000,1607
12.85833,1752
12.86667,1909
12.87500,2079
12.88333,2263
12.89167,2463
12.90000,2679
12.90833,2914
12.91667,3169
12.92500,3448
12.93333,3751
12.94167,4082
12.95000,4442
12.95833,4834
12.96667,5261
12.97500,5726
12.98333,6230
12.99167,6775
13.00000,7363
13.00833,7997
13.01667,8678
13.02500,9407
13.03333,10185
13.04167,11012
13.05000,11889
13.05833,12815
13.06667,13789
13.07500,14810
13.08333,15875
13.09167,16982
13.10000,18129
13.10833,19311
13.11667,20525
13.12500,21767
13.13333,23032
13.14167,24315
13.15000,25612
13.15833,26916
13.16667,28223
13.17500,29528
13.18333,30824
13.19167,32108
13.20000,33373
13.20833,34616
13.21667,35832
13.22500,37017
13.23333,38167
13.24167,39279
13.25000,40350
13.25833,41377
13.26667,42358
13.27500,43292
13.28333,44176
13.29167,45010
13.30000,45794
13.30833,46526
13.31667,47207
13.32500,47837
13.33333,48416
13.34167,48945
13.35000,49425
13.35833,49856
13.36667,50239
13.37500,50576
13.38333,50868
13.39167,51117
13.40000,51324
13.40833,51489
13.41667,51615
13.42500,51703
13.43333,51756
13.44167,51775
13.45000,51760
13.45833,51715
13.46667,51640
13.47500,51539
13.48333,51413
13.49167,51264
13.50000,51094
13.50833,50904
13.51667,50698
13.52500,50477
13.53333,50244
13.54167,50000
13.55000,49749
13.55833,49491
13.56667,49229
13.57500,48966
13.58333,48703
13.59167,48442
13.60000,48186
13.60833,47936
13.61667,47695
13.62500,47464
13.63333,47244
13.64167,47038
13.65000,46846
13.65833,46669
13.66667,46510
13.67500,46369
13.68333,46246
13.69167,46144
13.70000,46063
13.70833,46003
13.71667,45965
13.72500,45949
13.73333,45956
13.74167,45986
13.75000,46039
13.75833,46114
13.76667,46213
13.77500,46335
13.78333,46480
13.79167,46648
13.80000,46839
13.80833,47051
13.81667,47285
13.82500,47541
13.83333,47817
13.84167,48113
13.85000,48430
13.85833,48766
13.86667,49121
13.87500,49494
13.88333,49886
13.89167,50296
13.90000,50722
13.90833,51166
13.91667,51625
13.92500,52100
13.93333,52591
13.94167,53096
13.95000,53615
13.95833,54148
13.96667,54695
13.97500,55255
13.98333,55828
13.99167,56413
14.00000,57010
14.00833,57619
14.01667,58239
14.02500,58871
14.03333,59514
14.04167,60168
14.05000,60832
14.05833,61507
14.06667,62193
14.07500,62888
14.08333,63592
14.09167,64307
14.10000,65031
14.10833,65763
14.11667,66503
14.12500,67250
14.13333,68000
14.14167,68752
14.15000,69502
14.15833,70245
14.16667,70973
14.17500,71679
14.18333,72355
14.19167,72992
14.20000,73578
14.20833,74105
14.21667,74562
14.22500,74938
14.23333,75226
14.24167,75418
14.25000,75508
14.25833,75491
14.26667,75364
14.27500,75126
14.28333,74775
14.29167,74312
14.30000,73738
14.30833,73054
14.31667,72263
14.32500,71366
14.33333,70362
14.34167,69253
14.35000,68038
14.35833,66715
14.36667,65284
14.37500,63743
14.38333,62092
14.39167,60328
14.40000,58452
14.40833,56466
14.41667,54374
14.42500,52182
14.43333,49898
14.44167,47534
14.45000,45104
14.45833,42624
14.46667,40112
14.47500,37589
14.48333,35075
14.49167,32591
14.50000,30158
14.50833,27795
14.51667,25518
14.52500,23343
14.53333,21281
14.54167,19342
14.55000,17531
14.55833,15853
14.56667,14307
14.57500,12893
14.58333,11605
14.59167,10440
14.60000,9390
14.60833,8448
14.61667,7606
14.62500,6856
14.63333,6190
14.64167,5599
14.65000,5076
14.65833,4614
14.66667,4206
14.67500,3847
14.68333,3529
14.69167,3249
14.70000,3002
14.70833,2784
14.71667,2591
14.72500,2420
14.73333,2268
14.74167,2133
14.75000,2013
14.75833,1905
14.76667,1808
14.77500,1721
14.78333,1642
14.79167,1571
14.80000,1506
14.80833,1447
14.81667,1394
14.82500,1344
14.83333,1299
14.84167,1258
14.85000,1220
14.85833,1184
14.86667,1150
14.87500,1119
14.88333,1090
14.89167,1063
14.90000,1037
14.90833,1013
14.91667,991
14.92500,969
14.93333,949
14.94167,930
14.95000,911
14.95833,894
14.96667,877
14.97500,861
14.98333,846
14.99167,832
15.00000,818
15.00833,804
15.01667,791
15.02500,779
15.03333,768
15.04167,757
15.05000,747
15.05833,738
15.06667,729
15.07500,722
15.08333,716
15.09167,710
15.10000,706
15.10833,704
15.11667,703
15.12500,705
15.13333,710
15.14167,717
15.15000,728
15.15833,743
15.16667,764
15.17500,791
15.18333,824
15.19167,865
15.20000,915
15.20833,975
15.21667,1047
15.22500,1132
15.23333,1231
15.24167,1347
15.25000,1480
15.25833,1633
15.26667,1807
15.27500,2003
15.28333,2224
15.29167,2470
15.30000,2744
15.30833,3047
15.31667,3380
15.32500,3743
15.33333,4138
15.34167,4565
15.35000,5024
15.35833,5515
15.36667,6037
15.37500,6591
15.38333,7174
15.39167,7785
15.40000,8422
15.40833,9083
15.41667,9765
15.42500,10466
15.43333,11183
15.44167,11911
15.45000,12649
15.45833,13393
15.46667,14139
15.47500,14884
15.48333,15623
15.49167,16354
15.50000,17073
15.50833,17776
15.51667,18461
15.52500,19126
15.53333,19767
15.54167,20382
15.55000,20969
15.55833,21527
15.56667,22053
15.57500,22548
15.58333,23010
15.59167,23438
15.60000,23832
15.60833,24193
15.61667,24519
15.62500,24812
15.63333,25072
15.64167,25298
15.65000,25493
15.65833,25655
15.66667,25785
15.67500,25885
15.68333,25955
15.69167,25995
15.70000,26006
15.70833,25989
15.71667,25944
15.72500,25872
15.73333,25773
15.74167,25647
15.75000,25496
15.75833,25318
15.76667,25116
15.77500,24889
15.78333,24638
15.79167,24363
15.80000,24066
15.80833,23745
15.81667,23402
15.82500,23038
15.83333,22654
15.84167,22252
15.85000,21831
15.85833,21392
15.86667,20937
15.87500,20468
15.88333,19984
15.89167,19489
15.90000,18983
15.90833,18468
15.91667,17945
15.92500,17416
15.93333,16882
15.94167,16344
15.95000,15806
15.95833,15267
15.96667,14728
15.97500,14193
15.98333,13661
15.99167,13135
16.00000,12615
16.00833,12102
16.01667,11598
16.02500,11103
16.03333,10619
16.04167,10146
16.05000,9685
16.05833,9238
16.06667,8803
16.07500,8383
16.08333,7976
16.09167,7584
16.10000,7207
16.10833,6846
16.11667,6500
16.12500,6170
16.13333,5857
16.14167,5560
16.15000,5280
16.15833,5016
16.16667,4770
16.17500,4541
16.18333,4329
16.19167,4136
16.20000,3961
16.20833,3805
16.21667,3668
16.22500,3551
16.23333,3455
16.24167,3379
16.25000,3325
16.25833,3293
16.26667,3284
16.27500,3299
16.28333,3338
16.29167,3401
16.30000,3489
16.30833,3603
16.31667,3743
16.32500,3908
16.33333,4100
16.34167,4317
16.35000,4560
16.35833,4828
16.36667,5121
16.37500,5438
16.38333,5777
16.39167,6138
16.40000,6519
16.40833,6918
16.41667,7334
16.42500,7764
16.43333,8207
16.44167,8661
16.45000,9122
16.45833,9589
16.46667,10060
16.47500,10532
16.48333,11002
16.49167,11469
16.50000,11930
16.50833,12383
16.51667,12825
16.52500,13256
16.53333,13674
16.54167,14077
16.55000,14463
16.55833,14832
16.56667,15183
16.57500,15515
16.58333,15827
16.59167,16119
16.60000,16390
16.60833,16640
16.61667,16870
16.62500,17080
16.63333,17270
16.64167,17440
16.65000,17589
16.65833,17720
16.66667,17831
16.67500,17924
16.68333,17999
16.69167,18056
16.70000,18095
16.70833,18117
16.71667,18122
16.72500,18111
16.73333,18084
16.74167,18040
16.75000,17980
16.75833,17904
16.76667,17812
16.77500,17705
16.78333,17582
16.79167,17443
16.80000,17290
16.80833,17122
16.81667,16940
16.82500,16743
16.83333,16533
16.84167,16309
16.85000,16073
16.85833,15825
16.86667,15566
16.87500,15296
16.88333,15017
16.89167,14730
16.90000,14437
16.90833,14138
16.91667,13836
16.92500,13531
16.93333,13226
16.94167,12921
16.95000,12620
16.95833,12323
16.96667,12034
16.97500,11753
16.98333,11484
16.99167,11227
17.00000,10986
17.00833,10762
17.01667,10557
17.02500,10373
17.03333,10212
17.04167,10077
17.05000,9967
17.05833,9884
17.06667,9830
17.07500,9806
17.08333,9813
17.09167,9850
17.10000,9918
17.10833,10017
17.11667,10146
17.12500,10306
17.13333,10495
17.14167,10712
17.15000,10955
17.15833,11223
17.16667,11514
17.17500,11826
17.18333,12157
17.19167,12504
17.20000,12864
17.20833,13235
17.21667,13615
17.22500,14000
17.23333,14388
17.24167,14777
17.25000,15164
17.25833,15547
17.26667,15923
17.27500,16291
17.28333,16648
17.29167,16993
17.30000,17324
17.30833,17640
17.31667,17940
17.32500,18224
17.33333,18490
17.34167,18738
17.35000,18968
17.35833,19180
17.36667,19373
17.37500,19548
17.38333,19704
17.39167,19843
17.40000,19964
17.40833,20068
17.41667,20155
17.42500,20226
17.43333,20280
17.44167,20319
17.45000,20342
17.45833,20350
17.46667,20342
17.47500,20320
17.48333,20282
17.49167,20231
17.50000,20165
17.50833,20085
17.51667,19990
17.52500,19880
17.53333,19756
17.54167,19618
17.55000,19465
17.55833,19297
17.56667,19115
17.57500,18918
17.58333,18707
17.59167,18481
17.60000,18242
17.60833,17988
17.61667,17721
17.62500,17441
17.63333,17148
17.64167,16842
17.65000,16525
17.65833,16197
17.66667,15859
17.67500,15512
17.68333,15155
17.69167,14791
17.70000,14420
17.70833,14043
17.71667,13660
17.72500,13274
17.73333,12885
17.74167,12494
17.75000,12101
17.75833,11709
17.76667,11318
17.77500,10928
17.78333,10541
17.79167,10157
17.80000,9777
17.80833,9403
17.81667,9034
17.82500,8671
17.83333,8316
17.84167,7967
17.85000,7627
17.85833,7296
17.86667,6973
17.87500,6660
17.88333,6355
17.89167,6060
17.90000,5776
17.90833,5501
17.91667,5237
17.92500,4982
17.93333,4737
17.94167,4502
17.95000,4277
17.95833,4062
17.96667,3856
17.97500,3660
17.98333,3473
17.99167,3296
18.00000,3127
18.00833,2966
18.01667,2813
18.02500,2669
18.03333,2532
18.04167,2402
18.05000,2280
18.05833,2164
18.06667,2055
18.07500,1953
18.08333,1856
18.09167,1764
18.10000,1678
18.10833,1598
18.11667,1522
18.12500,1451
18.13333,1384
18.14167,1321
18.15000,1262
18.15833,1207
18.16667,1155
18.17500,1106
18.18333,1060
18.19167,1017
18.20000,977
18.20833,939
18.21667,903
18.22500,870
18.23333,840
18.24167,810
18.25000,783
18.25833,756
18.26667,731
18.27500,708
18.28333,686
18.29167,665
18.30000,646
18.30833,628
18.31667,610
18.32500,594
18.33333,578
18.34167,563
18.35000,549
18.35833,536
18.36667,523
18.37500,512
18.38333,501
18.39167,490
18.40000,480
18.40833,470
18.41667,460
18.42500,451
18.43333,442
18.44167,434
18.45000,426
18.45833,418
18.46667,411
18.47500,404
18.48333,398
18.49167,391
18.50000,385
18.50833,379
18.51667,373
18.52500,368
18.53333,363
18.54167,357
18.55000,352
18.55833,347
18.56667,342
18.57500,337
18.58333,333
18.59167,329
18.60000,325
18.60833,321
18.61667,317
18.62500,314
18.63333,311
18.64167,308
18.65000,305
18.65833,302
18.66667,298
18.67500,295
18.68333,292
18.69167,289
18.70000,286
18.70833,283
18.71667,281
18.72500,278
18.73333,276
18.74167,274
18.75000,271
18.75833,269
18.76667,266
18.77500,264
18.78333,262
18.79167,260
18.80000,259
18.80833,257
18.81667,256
18.82500,254
18.83333,253
18.84167,251
18.85000,250
18.85833,248
18.86667,247
18.87500,245
18.88333,244
18.89167,242
18.90000,241
18.90833,240
18.91667,239
18.92500,238
18.93333,237
18.94167,236
18.95000,235
18.95833,235
18.96667,234
18.97500,233
18.98333,232
18.99167,231
19.00000,229
19.00833,228
19.01667,227
19.02500,227
19.03333,226
19.04167,225
19.05000,224
19.05833,223
19.06667,222
19.07500,221
19.08333,220
19.09167,220
19.10000,219
19.10833,218
19.11667,217
19.12500,217
19.13333,216
19.14167,215
19.15000,214
19.15833,213
19.16667,212
19.17500,211
19.18333,211
19.19167,210
19.20000,209
19.20833,209
19.21667,208
19.22500,208
19.23333,207
19.24167,206
19.25000,205
19.25833,204
19.26667,203
19.27500,202
19.28333,201
19.29167,200
19.30000,199
19.30833,198
19.31667,197
19.32500,195
19.33333,195
19.34167,194
19.35000,193
19.35833,192
19.36667,191
19.37500,191
19.38333,190
19.39167,189
19.40000,188
19.40833,187
19.41667,187
19.42500,186
19.43333,184
19.44167,183
19.45000,182
19.45833,181
19.46667,179
19.47500,178
19.48333,177
19.49167,176
19.50000,175
19.50833,174
19.51667,173
19.52500,172
19.53333,172
19.54167,171
19.55000,170
19.55833,168
19.56667,167
19.57500,166
19.58333,165
19.59167,164
19.60000,163
19.60833,162
19.61667,161
19.62500,160
19.63333,159
19.64167,158
19.65000,157
19.65833,156
19.66667,155
19.67500,154
19.68333,153
19.69167,152
19.70000,151
19.70833,150
19.71667,149
19.72500,148
19.73333,147
19.74167,146
19.75000,145
19.75833,144
19.76667,143
19.77500,142
19.78333,141
19.79167,140
19.80000,139
19.80833,138
19.81667,137
19.82500,136
19.83333,136
19.84167,135
19.85000,134
19.85833,133
19.86667,132
19.87500,132
19.88333,132
19.89167,131
19.90000,130
19.90833,130
19.91667,129
19.92500,128
19.93333,127
19.94167,126
19.95000,125
19.95833,125
19.96667,124
19.97500,123
19.98333,122
19.99167,122
20.00000,121
20.00833,121
20.01667,120
20.02500,120
20.03333,119
20.04167,118
20.05000,117
20.05833,116
20.06667,116
20.07500,115
20.08333,114
20.09167,113
20.10000,112
20.10833,111
20.11667,110
20.12500,109
20.13333,108
20.14167,108
20.15000,107
20.15833,107
20.16667,106
20.17500,105
20.18333,105
20.19167,104
20.20000,103
20.20833,103
20.21667,102
20.22500,101
20.23333,101
20.24167,100
20.25000,100
20.25833,99
20.26667,99
20.27500,98
20.28333,97
20.29167,97
20.30000,96
20.30833,96
20.31667,95
20.32500,95
20.33333,94
20.34167,93
20.35000,92
20.35833,92
20.36667,91
20.37500,90
20.38333,90
20.39167,90
20.40000,89
20.40833,89
20.41667,88
20.42500,87
20.43333,87
20.44167,86
20.45000,86
20.45833,86
20.46667,85
20.47500,85
20.48333,84
20.49167,84
20.50000,83
20.50833,83
20.51667,83
20.52500,83
20.53333,82
20.54167,81
20.55000,80
20.55833,80
20.56667,79
20.57500,78
20.58333,78
20.59167,77
20.60000,77
20.60833,77
20.61667,76
20.62500,76
20.63333,76
20.64167,76
20.65000,75
20.65833,75
20.66667,75
20.67500,74
20.68333,74
20.69167,74
20.70000,74
20.70833,73
20.71667,73
20.72500,72
20.73333,71
20.74167,71
20.75000,71
20.75833,71
20.76667,70
20.77500,70
20.78333,70
20.79167,69
20.80000,69
20.80833,69
20.81667,69
20.82500,68
20.83333,68
20.84167,67
20.85000,67
20.85833,66
20.86667,66
20.87500,66
20.88333,65
20.89167,65
20.90000,64
20.90833,64
20.91667,64
20.92500,64
20.93333,64
20.94167,63
20.95000,63
20.95833,62
20.96667,62
20.97500,61
20.98333,61
20.99167,60
21.00000,60
21.00833,59
21.01667,59
21.02500,59
21.03333,59
21.04167,59
21.05000,59
21.05833,59
21.06667,59
21.07500,59
21.08333,58
21.09167,58
21.10000,58
21.10833,57
21.11667,57
21.12500,57
21.13333,56
21.14167,56
21.15000,55
21.15833,55
21.16667,54
21.17500,54
21.18333,53
21.19167,53
21.20000,53
21.20833,53
21.21667,53
21.22500,53
21.23333,53
21.24167,53
21.25000,53
21.25833,52
21.26667,52
21.27500,52
21.28333,51
21.29167,51
21.30000,51
21.30833,51
21.31667,51
21.32500,51
21.33333,51
21.34167,51
21.35000,51
21.35833,51
21.36667,51
21.37500,51
21.38333,51
21.39167,50
21.40000,50
21.40833,51
21.41667,51
21.42500,51
21.43333,51
21.44167,51
21.45000,51
21.45833,51
21.46667,51
21.47500,51
21.48333,51
21.49167,51
21.50000,51
21.50833,50
21.51667,50
21.52500,50
21.53333,50
21.54167,50
21.55000,50
21.55833,50
21.56667,50
21.57500,49
21.58333,49
21.59167,49
21.60000,49
21.60833,49
21.61667,49
21.62500,49
21.63333,49
21.64167,49
21.65000,49
21.65833,49
21.66667,49
21.67500,48
21.68333,48
21.69167,48
21.70000,48
21.70833,48
21.71667,48
21.72500,49
21.73333,49
21.74167,49
21.75000,48
21.75833,48
21.76667,48
21.77500,48
21.78333,48
21.79167,48
21.80000,48
21.80833,48
21.81667,48
21.82500,47
21.83333,47
21.84167,46
21.85000,46
21.85833,46
21.86667,46
21.87500,46
21.88333,46
21.89167,46
21.90000,45
21.90833,45
21.91667,45
21.92500,45
21.93333,44
21.94167,44
21.95000,44
21.95833,44
21.96667,43
21.97500,44
21.98333,44
21.99167,44
22.00000,44
22.00833,43
22.01667,43
22.02500,43
22.03333,42
22.04167,42
22.05000,42
22.05833,41
22.06667,41
22.07500,41
22.08333,42
22.09167,41
22.10000,41
22.10833,41
22.11667,40
22.12500,39
22.13333,40
22.14167,40
22.15000,40
22.15833,40
22.16667,39
22.17500,39
22.18333,39
22.19167,39
22.20000,39
22.20833,39
22.21667,39
22.22500,39
22.23333,39
22.24167,39
22.25000,38
22.25833,38
22.26667,38
22.27500,38
22.28333,38
22.29167,38
22.30000,38
22.30833,38
22.31667,37
22.32500,37
22.33333,37
22.34167,37
22.35000,37
22.35833,37
22.36667,37
22.37500,37
22.38333,37
22.39167,37
22.40000,37
22.40833,37
22.41667,37
22.42500,37
22.43333,38
22.44167,37
22.45000,37
22.45833,37
22.46667,36
22.47500,36
22.48333,36
22.49167,36
22.50000,36
22.50833,36
22.51667,36
22.52500,36
22.53333,36
22.54167,36
22.55000,36
22.55833,36
22.56667,36
22.57500,36
22.58333,37
22.59167,36
22.60000,36
22.60833,37
22.61667,37
22.62500,37
22.63333,37
22.64167,37
22.65000,37
22.65833,37
22.66667,37
22.67500,38
22.68333,38
22.69167,38
22.70000,38
22.70833,38
22.71667,38
22.72500,38
22.73333,37
22.74167,37
22.75000,37
22.75833,38
22.76667,38
22.77500,38
22.78333,38
22.79167,38
22.80000,38
22.80833,38
22.81667,39
22.82500,39
22.83333,39
22.84167,39
22.85000,39
22.85833,39
22.86667,39
22.87500,39
22.88333,39
22.89167,39
22.90000,39
22.90833,38
22.91667,39
22.92500,39
22.93333,39
22.94167,39
22.95000,39
22.95833,39
22.96667,39
22.97500,39
22.98333,39
22.99167,39
23.00000,38
23.00833,38
23.01667,38
23.02500,38
23.03333,38
23.04167,38
23.05000,39
23.05833,39
23.06667,39
23.07500,39
23.08333,39
23.09167,39
23.10000,39
23.10833,39
23.11667,39
23.12500,39
23.13333,39
23.14167,39
23.15000,38
23.15833,38
23.16667,38
23.17500,37
23.18333,37
23.19167,37
23.20000,37
23.20833,37
23.21667,37
23.22500,37
23.23333,36
23.24167,36
23.25000,36
23.25833,36
23.26667,36
23.27500,36
23.28333,36
23.29167,35
23.30000,35
23.30833,35
23.31667,35
23.32500,35
23.33333,35
23.34167,35
23.35000,35
23.35833,34
23.36667,34
23.37500,34
23.38333,34
23.39167,33
23.40000,33
23.40833,33
23.41667,33
23.42500,33
23.43333,33
23.44167,33
23.45000,34
23.45833,34
23.46667,34
23.47500,33
23.48333,33
23.49167,33
23.50000,33
23.50833,32
23.51667,32
23.52500,32
23.53333,32
23.54167,32
23.55000,32
23.55833,32
23.56667,32
23.57500,32
23.58333,32
23.59167,33
23.60000,33
23.60833,33
23.61667,32
23.62500,32
23.63333,32
23.64167,32
23.65000,32
23.65833,31
23.66667,31
23.67500,31
23.68333,31
23.69167,31
23.70000,31
23.70833,31
23.71667,31
23.72500,30
23.73333,30
23.74167,30
23.75000,31
23.75833,31
23.76667,31
23.77500,31
23.78333,31
23.79167,30
23.80000,30
23.80833,30
23.81667,30
23.82500,30
23.83333,30
23.84167,30
23.85000,30
23.85833,30
23.86667,30
23.87500,29
23.88333,29
23.89167,29
23.90000,29
23.90833,29
23.91667,30
23.92500,30
23.93333,30
23.94167,30
23.95000,30
23.95833,31
23.96667,31
23.97500,31
23.98333,31
23.99167,30
24.00000,30
24.00833,30
24.01667,30
24.02500,30
24.03333,29
24.04167,29
24.05000,29
24.05833,29
24.06667,29
24.07500,29
24.08333,28
24.09167,28
24.10000,28
24.10833,28
24.11667,28
24.12500,28
24.13333,28
24.14167,28
24.15000,28
24.15833,28
24.16667,28
24.17500,28
24.18333,28
24.19167,28
24.20000,28
24.20833,28
24.21667,28
24.22500,28
24.23333,29
24.24167,29
24.25000,29
24.25833,28
24.26667,28
24.27500,28
24.28333,28
24.29167,28
24.30000,28
24.30833,28
24.31667,28
24.32500,28
24.33333,27
24.34167,27
24.35000,27
24.35833,27
24.36667,27
24.37500,27
24.38333,27
24.39167,27
24.40000,27
24.40833,28
24.41667,28
24.42500,28
24.43333,28
24.44167,29
24.45000,29
24.45833,29
24.46667,29
24.47500,29
24.48333,29
24.49167,28
24.50000,28
24.50833,28
24.51667,29
24.52500,29
24.53333,29
24.54167,29
24.55000,29
24.55833,29
24.56667,29
24.57500,28
24.58333,28
24.59167,29
24.60000,28
24.60833,28
24.61667,28
24.62500,28
24.63333,28
24.64167,28
24.65000,28
24.65833,28
24.66667,28
24.67500,28
24.68333,28
24.69167,28
24.70000,28
24.70833,28
24.71667,28
24.72500,28
24.73333,28
24.74167,28
24.75000,28
24.75833,28
24.76667,28
24.77500,28
24.78333,28
24.79167,28
24.80000,27
24.80833,27
24.81667,27
24.82500,28
24.83333,28
24.84167,28
24.85000,28
24.85833,28
24.86667,28
24.87500,28
24.88333,29
24.89167,29
24.90000,28
24.90833,28
24.91667,29
24.92500,29
24.93333,29
24.94167,29
24.95000,29
24.95833,29
24.96667,28
24.97500,28
24.98333,28
24.99167,28
25.00000,28
25.00833,28
25.01667,27
25.02500,27
25.03333,27
25.04167,27
25.05000,27
25.05833,27
25.06667,27
25.07500,28
25.08333,28
25.09167,28
25.10000,28
25.10833,28
25.11667,28
25.12500,27
25.13333,27
25.14167,27
25.15000,27
25.15833,27
25.16667,27
25.17500,27
25.18333,27
25.19167,27
25.20000,26
25.20833,26
25.21667,26
25.22500,26
25.23333,26
25.24167,26
25.25000,26
25.25833,26
25.26667,26
25.27500,26
25.28333,26
25.29167,26
25.30000,26
25.30833,25
25.31667,25
25.32500,25
25.33333,25
25.34167,25
25.35000,25
25.35833,26
25.36667,26
25.37500,26
25.38333,26
25.39167,26
25.40000,25
25.40833,25
25.41667,25
25.42500,25
25.43333,26
25.44167,26
25.45000,26
25.45833,27
25.46667,27
25.47500,27
25.48333,27
25.49167,27
25.50000,27
25.50833,27
25.51667,27
25.52500,26
25.53333,26
25.54167,26
25.55000,26
25.55833,26
25.56667,26
25.57500,26
25.58333,26
25.59167,26
25.60000,26
25.60833,26
25.61667,26
25.62500,26
25.63333,26
25.64167,26
25.65000,26
25.65833,26
25.66667,26
25.67500,26
25.68333,26
25.69167,26
25.70000,26
25.70833,26
25.71667,26
25.72500,26
25.73333,26
25.74167,26
25.75000,26
25.75833,26
25.76667,26
25.77500,26
25.78333,26
25.79167,26
25.80000,26
25.80833,26
25.81667,26
25.82500,26
25.83333,26
25.84167,26
25.85000,26
25.85833,26
25.86667,27
25.87500,27
25.88333,27
25.89167,27
25.90000,27
25.90833,27
25.91667,27
25.92500,27
25.93333,27
25.94167,27
25.95000,27
25.95833,26
25.96667,27
25.97500,27
25.98333,27
25.99167,27
26.00000,27
26.00833,26
26.01667,26
26.02500,26
26.03333,26
26.04167,26
26.05000,26
26.05833,26
26.06667,27
26.07500,27
26.08333,27
26.09167,27
26.10000,27
26.10833,27
26.11667,27
26.12500,27
26.13333,27
26.14167,27
26.15000,27
26.15833,27
26.16667,28
26.17500,27
26.18333,27
26.19167,27
26.20000,27
26.20833,27
26.21667,27
26.22500,27
26.23333,27
26.24167,27
26.25000,27
26.25833,27
26.26667,27
26.27500,27
26.28333,27
26.29167,27
26.30000,27
26.30833,28
26.31667,28
26.32500,28
26.33333,28
26.34167,28
26.35000,28
26.35833,28
26.36667,28
26.37500,28
26.38333,28
26.39167,28
26.40000,28
26.40833,28
26.41667,28
26.42500,28
26.43333,28
26.44167,28
26.45000,28
26.45833,28
26.46667,27
26.47500,27
26.48333,27
26.49167,27
26.50000,27
26.50833,27
26.51667,27
26.52500,27
26.53333,27
26.54167,27
26.55000,27
26.55833,27
26.56667,27
26.57500,27
26.58333,27
26.59167,27
26.60000,28
26.60833,28
26.61667,28
26.62500,28
26.63333,28
26.64167,28
26.65000,28
26.65833,28
26.66667,28
26.67500,27
26.68333,27
26.69167,27
26.70000,27
26.70833,27
26.71667,27
26.72500,27
26.73333,26
26.74167,26
26.75000,26
26.75833,25
26.76667,25
26.77500,25
26.78333,25
26.79167,25
26.80000,25
26.80833,24
26.81667,24
26.82500,23
26.83333,22
26.84167,22
26.85000,21
26.85833,20
26.86667,20
26.87500,19
26.88333,18
26.89167,17
26.90000,16
26.90833,15
26.91667,14
26.92500,14
26.93333,13
26.94167,12
26.95000,11
26.95833,9
26.96667,8
26.97500,7
26.98333,5
26.99167,4
27.00000,3
27.00833,1
27.01667,0
27.02500,-1
27.03333,-3
27.04167,-5
27.05000,-6
27.05833,-8
27.06667,-9
27.07500,-11
27.08333,-13
27.09167,-15
27.10000,-17
27.10833,-19
27.11667,-21
27.12500,-23
27.13333,-25
27.14167,-27
27.15000,-29
27.15833,-31
27.16667,-33
27.17500,-35
27.18333,-38
27.19167,-40
27.20000,-42
27.20833,-44
27.21667,-46
27.22500,-49
27.23333,-51
27.24167,-53
27.25000,-55
27.25833,-57
27.26667,-59
27.27500,-61
27.28333,-63
27.29167,-65
27.30000,-67
27.30833,-69
27.31667,-71
27.32500,-72
27.33333,-74
27.34167,-76
27.35000,-78
27.35833,-79
27.36667,-81
27.37500,-82
27.38333,-84
27.39167,-86
27.40000,-88
27.40833,-90
27.41667,-91
27.42500,-93
27.43333,-94
27.44167,-95
27.45000,-96
27.45833,-97
27.46667,-98
27.47500,-99
27.48333,-100
27.49167,-101
27.50000,-102
27.50833,-103
27.51667,-103
27.52500,-104
27.53333,-104
27.54167,-105
27.55000,-105
27.55833,-106
27.56667,-106
27.57500,-107
27.58333,-107
27.59167,-107
27.60000,-108
27.60833,-108
27.61667,-108
27.62500,-107
27.63333,-107
27.64167,-106
27.65000,-106
27.65833,-105
27.66667,-105
27.67500,-104
27.68333,-104
27.69167,-103
27.70000,-102
27.70833,-101
27.71667,-100
27.72500,-99
27.73333,-98
27.74167,-97
27.75000,-95
27.75833,-94
27.76667,-93
27.77500,-91
27.78333,-90
27.79167,-88
27.80000,-87
27.80833,-85
27.81667,-84
27.82500,-82
27.83333,-80
27.84167,-78
27.85000,-77
27.85833,-75
27.86667,-73
27.87500,-72
27.88333,-70
27.89167,-68
27.90000,-66
27.90833,-64
27.91667,-62
27.92500,-60
27.93333,-59
27.94167,-57
27.95000,-55
27.95833,-53
27.96667,-52
27.97500,-49
27.98333,-47
27.99167,-45
28.00000,-43
28.00833,-41
28.01667,-39
28.02500,-37
28.03333,-36
28.04167,-34
28.05000,-32
28.05833,-31
28.06667,-29
28.07500,-27
28.08333,-26
28.09167,-24
28.10000,-23
28.10833,-22
28.11667,-20
28.12500,-19
28.13333,-18
28.14167,-16
28.15000,-15
28.15833,-13
28.16667,-12
28.17500,-11
28.18333,-10
28.19167,-9
28.20000,-7
28.20833,-7
28.21667,-6
28.22500,-5
28.23333,-4
28.24167,-2
28.25000,-1
28.25833,-0
28.26667,0
28.27500,1
28.28333,1
28.29167,1
28.30000,2
28.30833,2
28.31667,2
28.32500,3
28.33333,4
28.34167,5
28.35000,5
28.35833,6
28.36667,6
28.37500,7
28.38333,8
28.39167,8
28.40000,9
28.40833,9
28.41667,10
28.42500,10
28.43333,11
28.44167,11
28.45000,11
28.45833,11
28.46667,11
28.47500,11
28.48333,12
28.49167,12
28.50000,12
28.50833,12
28.51667,12
28.52500,12
28.53333,11
28.54167,11
28.55000,11
28.55833,11
28.56667,10
28.57500,10
28.58333,10
28.59167,10
28.60000,10
28.60833,9
28.61667,9
28.62500,8
28.63333,8
28.64167,8
28.65000,8
28.65833,8
28.66667,8
28.67500,7
28.68333,7
28.69167,7
28.70000,6
28.70833,5
28.71667,5
28.72500,4
28.73333,4
28.74167,4
28.75000,3
28.75833,2
28.76667,2
28.77500,1
28.78333,1
28.79167,-0
28.80000,-1
28.80833,-2
28.81667,-2
28.82500,-3
28.83333,-4
28.84167,-4
28.85000,-5
28.85833,-5
28.86667,-6
28.87500,-7
28.88333,-7
28.89167,-8
28.90000,-8
28.90833,-9
28.91667,-10
28.92500,-11
28.93333,-12
28.94167,-12
28.95000,-13
28.95833,-15
28.96667,-16
28.97500,-16
28.98333,-17
28.99167,-18
29.00000,-19
29.00833,-19
29.01667,-20
29.02500,-20
29.03333,-21
29.04167,-21
29.05000,-22
29.05833,-23
29.06667,-23
29.07500,-24
29.08333,-25
29.09167,-25
29.10000,-26
29.10833,-26
29.11667,-27
29.12500,-28
29.13333,-29
29.14167,-30
29.15000,-30
29.15833,-30
29.16667,-30
29.17500,-30
29.18333,-31
29.19167,-31
29.20000,-32
29.20833,-32
29.21667,-32
29.22500,-32
29.23333,-33
29.24167,-33
29.25000,-33
29.25833,-33
29.26667,-34
29.27500,-34
29.28333,-34
29.29167,-34
29.30000,-34
29.30833,-34
29.31667,-34
29.32500,-33
29.33333,-33
29.34167,-33
29.35000,-33
29.35833,-33
29.36667,-32
29.37500,-32
29.38333,-32
29.39167,-32
29.40000,-31
29.40833,-31
29.41667,-30
29.42500,-30
29.43333,-29
29.44167,-29
29.45000,-29
29.45833,-28
29.46667,-27
29.47500,-27
29.48333,-26
29.49167,-26
29.50000,-26
29.50833,-25
29.51667,-25
29.52500,-24
29.53333,-24
29.54167,-23
29.55000,-22
29.55833,-21
29.56667,-20
29.57500,-20
29.58333,-19
29.59167,-18
29.60000,-18
29.60833,-17
29.61667,-16
29.62500,-15
29.63333,-14
29.64167,-14
29.65000,-14
29.65833,-13
29.66667,-12
29.67500,-12
29.68333,-11
29.69167,-10
29.70000,-9
29.70833,-8
29.71667,-7
29.72500,-7
29.73333,-6
29.74167,-5
29.75000,-5
29.75833,-4
29.76667,-3
29.77500,-3
29.78333,-2
29.79167,-2
29.80000,-1
29.80833,-0
29.81667,0
29.82500,0
29.83333,1
29.84167,2
29.85000,2
29.85833,3
29.86667,3
29.87500,4
29.88333,5
29.89167,5
29.90000,5
29.90833,5
29.91667,6
29.92500,6
29.93333,6
29.94167,6
29.95000,7
29.95833,7
29.96667,8
29.97500,9
29.98333,9
29.99167,9
30.00000,9
30.00833,9
30.01667,10
30.02500,10
30.03333,10
30.04167,10
30.05000,10
30.05833,10
30.06667,11
30.07500,11
30.08333,12
30.09167,12
30.10000,12
30.10833,13
30.11667,13
30.12500,13
30.13333,13
30.14167,13
30.15000,13
30.15833,13
30.16667,13
30.17500,13
30.18333,14
30.19167,14
30.20000,14
30.20833,14
30.21667,14
30.22500,15
30.23333,14
30.24167,14
30.25000,14
30.25833,14
30.26667,15
30.27500,15
30.28333,15
30.29167,15
30.30000,15
30.30833,16
30.31667,16
30.32500,16
30.33333,16
30.34167,16
30.35000,17
30.35833,16
30.36667,16
30.37500,17
30.38333,17
30.39167,17
30.40000,17
30.40833,17
30.41667,17
30.42500,17
30.43333,17
30.44167,16
30.45000,16
30.45833,16
30.46667,17
30.47500,17
30.48333,17
30.49167,17
30.50000,17
30.50833,18
30.51667,18
30.52500,18
30.53333,18
30.54167,18
30.55000,18
30.55833,18
30.56667,18
30.57500,19
30.58333,19
30.59167,19
30.60000,19
30.60833,20
30.61667,20
30.62500,20
30.63333,20
30.64167,20
30.65000,20
30.65833,20
30.66667,21
30.67500,20
30.68333,20
30.69167,20
30.70000,20
30.70833,20
30.71667,20
30.72500,20
30.73333,20
30.74167,20
30.75000,20
30.75833,20
30.76667,20
30.77500,20
30.78333,20
30.79167,20
30.80000,20
30.80833,21
30.81667,21
30.82500,21
30.83333,21
30.84167,21
30.85000,22
30.85833,22
30.86667,22
30.87500,22
30.88333,22
30.89167,22
30.90000,23
30.90833,22
30.91667,22
30.92500,22
30.93333,21
30.94167,21
30.95000,22
30.95833,22
30.96667,22
30.97500,22
30.98333,22
30.99167,23
31.00000,23
31.00833,23
31.01667,23
31.02500,23
31.03333,23
31.04167,23
31.05000,23
31.05833,23
31.06667,23
31.07500,23
31.08333,23
31.09167,23
31.10000,23
31.10833,24
31.11667,24
31.12500,24
31.13333,24
31.14167,23
31.15000,23
31.15833,24
31.16667,23
31.17500,23
31.18333,23
31.19167,23
31.20000,23
31.20833,24
31.21667,24
31.22500,24
31.23333,24
31.24167,25
31.25000,25
31.25833,24
31.26667,24
31.27500,24
31.28333,24
31.29167,25
31.30000,25
31.30833,25
31.31667,25
31.32500,25
31.33333,25
31.34167,25
31.35000,25
31.35833,25
31.36667,26
31.37500,26
31.38333,27
31.39167,27
31.40000,27
31.40833,27
31.41667,27
31.42500,27
31.43333,27
31.44167,27
31.45000,27
31.45833,27
31.46667,27
31.47500,28
31.48333,28
31.49167,28
31.50000,29
31.50833,29
31.51667,29
31.52500,29
31.53333,29
31.54167,29
31.55000,29
31.55833,29
31.56667,29
31.57500,29
31.58333,28
31.59167,28
31.60000,28
31.60833,28
31.61667,28
31.62500,29
31.63333,29
31.64167,29
31.65000,29
31.65833,29
31.66667,29
31.67500,29
31.68333,29
31.69167,29
31.70000,30
31.70833,30
31.71667,30
31.72500,30
31.73333,30
31.74167,30
31.75000,29
31.75833,29
31.76667,29
31.77500,29
31.78333,29
31.79167,29
31.80000,29
31.80833,29
31.81667,29
31.82500,29
31.83333,29
31.84167,29
31.85000,29
31.85833,29
31.86667,29
31.87500,29
31.88333,29
31.89167,30
31.90000,30
31.90833,30
31.91667,30
31.92500,29
31.93333,29
31.94167,29
31.95000,29
31.95833,29
31.96667,29
31.97500,29
31.98333,30
31.99167,30
32.00000,30
32.00833,30
32.01667,30
32.02500,30
32.03333,30
32.04167,30
32.05000,29
32.05833,29
32.06667,29
32.07500,29
32.08333,30
32.09167,30
32.10000,30
32.10833,30
32.11667,30
32.12500,29
32.13333,29
32.14167,29
32.15000,29
32.15833,29
32.16667,29
32.17500,29
32.18333,28
32.19167,28
32.20000,28
32.20833,28
32.21667,28
32.22500,29
32.23333,29
32.24167,29
32.25000,29
32.25833,28
32.26667,28
32.27500,28
32.28333,28
32.29167,28
32.30000,28
32.30833,28
32.31667,28
32.32500,28
32.33333,28
32.34167,28
32.35000,28
32.35833,28
32.36667,28
32.37500,28
32.38333,28
32.39167,27
32.40000,27
32.40833,27
32.41667,27
32.42500,27
32.43333,27
32.44167,27
32.45000,27
32.45833,27
32.46667,27
32.47500,26
32.48333,26
32.49167,26
32.50000,26
32.50833,26
32.51667,26
32.52500,26
32.53333,26
32.54167,26
32.55000,26
32.55833,26
32.56667,26
32.57500,26
32.58333,25
32.59167,25
32.60000,25
32.60833,25
32.61667,25
32.62500,25
32.63333,25
32.64167,25
32.65000,25
32.65833,25
32.66667,25
32.67500,25
32.68333,25
32.69167,25
32.70000,25
32.70833,25
32.71667,25
32.72500,24
32.73333,24
32.74167,24
32.75000,24
32.75833,24
32.76667,24
32.77500,24
32.78333,23
32.79167,23
32.80000,23
32.80833,24
32.81667,24
32.82500,24
32.83333,24
32.84167,24
32.85000,23
32.85833,23
32.86667,23
32.87500,23
32.88333,23
32.89167,22
32.90000,22
32.90833,22
32.91667,22
32.92500,22
32.93333,22
32.94167,22
32.95000,22
32.95833,22
32.96667,21
32.97500,21
32.98333,21
32.99167,21
33.00000,21
33.00833,21
33.01667,21
33.02500,21
33.03333,21
33.04167,21
33.05000,21
33.05833,21
33.06667,22
33.07500,22
33.08333,22
33.09167,22
33.10000,22
33.10833,22
33.11667,21
33.12500,22
33.13333,22
33.14167,22
33.15000,22
33.15833,22
33.16667,22
33.17500,22
33.18333,21
33.19167,21
33.20000,21
33.20833,21
33.21667,20
33.22500,20
33.23333,20
33.24167,21
33.25000,21
33.25833,21
33.26667,21
33.27500,21
33.28333,21
33.29167,21
33.30000,22
33.30833,22
33.31667,21
33.32500,21
33.33333,21
33.34167,21
33.35000,21
33.35833,21
33.36667,21
33.37500,21
33.38333,21
33.39167,21
33.40000,21
33.40833,22
33.41667,22
33.42500,22
33.43333,22
33.44167,21
33.45000,21
33.45833,21
33.46667,21
33.47500,21
33.48333,21
33.49167,21
33.50000,21
33.50833,21
33.51667,21
33.52500,21
33.53333,21
33.54167,21
33.55000,21
33.55833,21
33.56667,21
33.57500,21
33.58333,21
33.59167,21
33.60000,22
33.60833,22
33.61667,22
33.62500,22
33.63333,22
33.64167,22
33.65000,22
33.65833,23
33.66667,22
33.67500,22
33.68333,22
33.69167,22
33.70000,22
33.70833,22
33.71667,22
33.72500,23
33.73333,23
33.74167,23
33.75000,23
33.75833,22
33.76667,22
33.77500,22
33.78333,22
33.79167,22
33.80000,22
33.80833,22
33.81667,22
33.82500,22
33.83333,22
33.84167,22
33.85000,22
33.85833,22
33.86667,22
33.87500,22
33.88333,22
33.89167,23
33.90000,23
33.90833,23
33.91667,23
33.92500,24
33.93333,24
33.94167,24
33.95000,23
33.95833,23
33.96667,23
33.97500,23
33.98333,23
33.99167,23
34.00000,23
34.00833,23
34.01667,23
34.02500,23
34.03333,22
34.04167,22
34.05000,22
34.05833,22
34.06667,23
34.07500,23
34.08333,23
34.09167,23
34.10000,23
34.10833,23
34.11667,23
34.12500,23
34.13333,23
34.14167,23
34.15000,23
34.15833,23
34.16667,23
34.17500,23
34.18333,23
34.19167,23
34.20000,23
34.20833,22
34.21667,23
34.22500,23
34.23333,23
34.24167,23
34.25000,23
34.25833,23
34.26667,23
34.27500,23
34.28333,22
34.29167,22
34.30000,22
34.30833,23
34.31667,23
34.32500,23
34.33333,23
34.34167,23
34.35000,24
34.35833,24
34.36667,23
34.37500,23
34.38333,23
34.39167,23
34.40000,23
34.40833,23
34.41667,23
34.42500,23
34.43333,22
34.44167,22
34.45000,22
34.45833,22
34.46667,22
34.47500,22
34.48333,22
34.49167,23
34.50000,23
34.50833,23
34.51667,23
34.52500,23
34.53333,22
34.54167,22
34.55000,22
34.55833,22
34.56667,22
34.57500,22
34.58333,22
34.59167,22
34.60000,22
34.60833,22
34.61667,23
34.62500,23
34.63333,23
34.64167,22
34.65000,22
34.65833,22
34.66667,22
34.67500,22
34.68333,23
34.69167,23
34.70000,23
34.70833,23
34.71667,22
34.72500,22
34.73333,22
34.74167,22
34.75000,22
34.75833,22
34.76667,22
34.77500,22
34.78333,22
34.79167,22
34.80000,22
34.80833,22
34.81667,22
34.82500,22
34.83333,23
34.84167,23
34.85000,22
34.85833,22
34.86667,22
34.87500,22
34.88333,21
34.89167,22
34.90000,22
34.90833,22
34.91667,22
34.92500,22
34.93333,22
34.94167,22
34.95000,22
34.95833,23
34.96667,23
34.97500,22
34.98333,22
34.99167,22
35.00000,22
35.00833,22
35.01667,22
35.02500,21
35.03333,21
35.04167,21
35.05000,21
35.05833,21
35.06667,22
35.07500,22
35.08333,22
35.09167,22
35.10000,22
35.10833,22
35.11667,23
35.12500,23
35.13333,23
35.14167,23
35.15000,22
35.15833,22
35.16667,22
35.17500,22
35.18333,22
35.19167,22
35.20000,22
35.20833,22
35.21667,22
35.22500,22
35.23333,22
35.24167,23
35.25000,23
35.25833,23
35.26667,23
35.27500,23
35.28333,23
35.29167,23
35.30000,23
35.30833,23
35.31667,23
35.32500,23
35.33333,23
35.34167,23
35.35000,23
35.35833,23
35.36667,23
35.37500,23
35.38333,22
35.39167,23
35.40000,23
35.40833,23
35.41667,23
35.42500,23
35.43333,23
35.44167,22
35.45000,21
35.45833,21
35.46667,22
35.47500,22
35.48333,22
35.49167,22
35.50000,22
35.50833,22
35.51667,22
35.52500,23
35.53333,23
35.54167,23
35.55000,23
35.55833,23
35.56667,23
35.57500,23
35.58333,23
35.59167,23
35.60000,22
35.60833,22
35.61667,22
35.62500,22
35.63333,22
35.64167,22
35.65000,23
35.65833,23
35.66667,22
35.67500,22
35.68333,22
35.69167,21
35.70000,21
35.70833,21
35.71667,21
35.72500,21
35.73333,21
35.74167,22
35.75000,22
35.75833,22
35.76667,22
35.77500,22
35.78333,22
35.79167,23
35.80000,23
35.80833,23
35.81667,23
35.82500,23
35.83333,22
35.84167,22
35.85000,22
35.85833,21
35.86667,21
35.87500,22
35.88333,22
35.89167,22
35.90000,22
35.90833,22
35.91667,22
35.92500,22
35.93333,22
35.94167,22
35.95000,22
35.95833,22
35.96667,22
35.97500,22
35.98333,22
35.99167,21
36.00000,21
36.00833,21
36.01667,22
36.02500,22
36.03333,21
36.04167,21
36.05000,21
36.05833,21
36.06667,21
36.07500,21
36.08333,22
36.09167,22
36.10000,21
36.10833,21
36.11667,21
36.12500,21
36.13333,21
36.14167,21
36.15000,22
36.15833,22
36.16667,22
36.17500,22
36.18333,22
36.19167,22
36.20000,22
36.20833,22
36.21667,22
36.22500,22
36.23333,22
36.24167,23
36.25000,22
36.25833,22
36.26667,22
36.27500,22
36.28333,22
36.29167,22
36.30000,22
36.30833,22
36.31667,22
36.32500,22
36.33333,22
36.34167,22
36.35000,21
36.35833,21
36.36667,21
36.37500,21
36.38333,21
36.39167,21
36.40000,21
36.40833,21
36.41667,21
36.42500,21
36.43333,21
36.44167,22
36.45000,22
36.45833,22
36.46667,21
36.47500,21
36.48333,21
36.49167,22
36.50000,22
36.50833,23
36.51667,23
36.52500,22
36.53333,23
36.54167,23
36.55000,23
36.55833,23
36.56667,22
36.57500,22
36.58333,22
36.59167,22
36.60000,22
36.60833,22
36.61667,22
36.62500,22
36.63333,22
36.64167,23
36.65000,23
36.65833,23
36.66667,23
36.67500,23
36.68333,23
36.69167,23
36.70000,23
36.70833,23
36.71667,23
36.72500,23
36.73333,23
36.74167,23
36.75000,23
36.75833,23
36.76667,23
36.77500,23
36.78333,23
36.79167,23
36.80000,23
36.80833,23
36.81667,23
36.82500,23
36.83333,23
36.84167,23
36.85000,23
36.85833,23
36.86667,23
36.87500,23
36.88333,23
36.89167,23
36.90000,23
36.90833,23
36.91667,23
36.92500,23
36.93333,23
36.94167,23
36.95000,23
36.95833,23
36.96667,23
36.97500,23
36.98333,22
36.99167,23
37.00000,23
37.00833,23
37.01667,23
37.02500,23
37.03333,23
37.04167,23
37.05000,23
37.05833,23
37.06667,24
37.07500,24
37.08333,24
37.09167,24
37.10000,24
37.10833,24
37.11667,24
37.12500,24
37.13333,24
37.14167,24
37.15000,24
37.15833,24
37.16667,24
37.17500,24
37.18333,24
37.19167,24
37.20000,24
37.20833,24
37.21667,25
37.22500,25
37.23333,24
37.24167,24
37.25000,24
37.25833,23
37.26667,24
37.27500,24
37.28333,24
37.29167,24
37.30000,24
37.30833,24
37.31667,24
37.32500,23
37.33333,23
37.34167,23
37.35000,23
37.35833,23
37.36667,23
37.37500,23
37.38333,23
37.39167,23
37.40000,23
37.40833,23
37.41667,23
37.42500,23
37.43333,23
37.44167,23
37.45000,23
37.45833,23
37.46667,23
37.47500,23
37.48333,23
37.49167,23
37.50000,23
37.50833,23
37.51667,23
37.52500,23
37.53333,23
37.54167,23
37.55000,23
37.55833,23
37.56667,24
37.57500,23
37.58333,23
37.59167,23
37.60000,23
37.60833,23
37.61667,23
37.62500,24
37.63333,24
37.64167,24
37.65000,24
37.65833,24
37.66667,24
37.67500,23
37.68333,23
37.69167,23
37.70000,23
37.70833,22
37.71667,22
37.72500,22
37.73333,22
37.74167,22
37.75000,22
37.75833,23
37.76667,23
37.77500,23
37.78333,23
37.79167,23
37.80000,23
37.80833,23
37.81667,23
37.82500,23
37.83333,23
37.84167,23
37.85000,23
37.85833,23
37.86667,22
37.87500,23
37.88333,23
37.89167,23
37.90000,23
37.90833,23
37.91667,22
37.92500,22
37.93333,22
37.94167,22
37.95000,23
37.95833,23
37.96667,23
37.97500,23
37.98333,23
37.99167,23
38.00000,22
38.00833,22
38.01667,22
38.02500,22
38.03333,22
38.04167,22
38.05000,22
38.05833,22
38.06667,22
38.07500,22
38.08333,23
38.09167,23
38.10000,22
38.10833,22
38.11667,22
38.12500,22
38.13333,22
38.14167,22
38.15000,23
38.15833,23
38.16667,23
38.17500,23
38.18333,23
38.19167,23
38.20000,23
38.20833,23
38.21667,23
38.22500,23
38.23333,23
38.24167,22
38.25000,22
38.25833,22
38.26667,22
38.27500,21
38.28333,21
38.29167,21
38.30000,21
38.30833,21
38.31667,21
38.32500,21
38.33333,22
38.34167,21
38.35000,21
38.35833,21
38.36667,21
38.37500,21
38.38333,21
38.39167,21
38.40000,21
38.40833,21
38.41667,21
38.42500,21
38.43333,21
38.44167,21
38.45000,21
38.45833,21
38.46667,21
38.47500,21
38.48333,22
38.49167,22
38.50000,22
38.50833,22
38.51667,22
38.52500,22
38.53333,22
38.54167,22
38.55000,22
38.55833,22
38.56667,22
38.57500,22
38.58333,23
38.59167,22
38.60000,22
38.60833,22
38.61667,21
38.62500,21
38.63333,21
38.64167,21
38.65000,21
38.65833,20
38.66667,20
38.67500,20
38.68333,20
38.69167,20
38.70000,20
38.70833,20
38.71667,20
38.72500,20
38.73333,20
38.74167,20
38.75000,20
38.75833,20
38.76667,20
38.77500,20
38.78333,20
38.79167,20
38.80000,20
38.80833,21
38.81667,21
38.82500,21
38.83333,20
38.84167,20
38.85000,20
38.85833,20
38.86667,20
38.87500,20
38.88333,20
38.89167,20
38.90000,20
38.90833,20
38.91667,20
38.92500,19
38.93333,19
38.94167,19
38.95000,19
38.95833,19
38.96667,19
38.97500,19
38.98333,19
38.99167,19
39.00000,19
39.00833,19
39.01667,19
39.02500,19
39.03333,20
39.04167,20
39.05000,19
39.05833,19
39.06667,19
39.07500,19
39.08333,19
39.09167,19
39.10000,19
39.10833,19
39.11667,20
39.12500,20
39.13333,20
39.14167,20
39.15000,20
39.15833,20
39.16667,20
39.17500,20
39.18333,20
39.19167,20
39.20000,20
39.20833,20
39.21667,20
39.22500,20
39.23333,20
39.24167,20
39.25000,19
39.25833,19
39.26667,19
39.27500,19
39.28333,19
39.29167,19
39.30000,19
39.30833,19
39.31667,19
39.32500,19
39.33333,19
39.34167,19
39.35000,19
39.35833,19
39.36667,19
39.37500,19
39.38333,19
39.39167,19
39.40000,19
39.40833,19
39.41667,19
39.42500,19
39.43333,19
39.44167,19
39.45000,19
39.45833,19
39.46667,19
39.47500,18
39.48333,18
39.49167,18
39.50000,19
39.50833,19
39.51667,19
39.52500,19
39.53333,19
39.54167,19
39.55000,19
39.55833,19
39.56667,19
39.57500,19
39.58333,20
39.59167,19
39.60000,19
39.60833,19
39.61667,19
39.62500,19
39.63333,19
39.64167,19
39.65000,19
39.65833,19
39.66667,19
39.67500,19
39.68333,19
39.69167,19
39.70000,18
39.70833,19
39.71667,19
39.72500,18
39.73333,19
39.74167,18
39.75000,18
39.75833,18
39.76667,18
39.77500,19
39.78333,19
39.79167,19
39.80000,19
39.80833,19
39.81667,18
39.82500,18
39.83333,18
39.84167,18
39.85000,18
39.85833,18
39.86667,18
39.87500,18
39.88333,19
39.89167,19
39.90000,18
39.90833,18
39.91667,18
39.92500,18
39.93333,18
39.94167,18
39.95000,18
39.95833,18
39.96667,19
39.97500,19
39.98333,19
39.99167,19
40.00000,19